      0.1015553921
      0.1044958830
      0.1075423434
      0.1106769219
      0.1138872057
      0.1171570718
      0.1204606593
      0.1237677410
      0.1270520240
      0.1302922368
      0.1334699243
      0.1365699172
      0.1395819485
      0.1425029188
      0.1453395635
      0.1481070220
      0.1508224458
      0.1534994543
      0.1561475694
      0.1587733030
      0.1613763124
      0.1639420837
      0.1664450318
      0.1688668877
      0.1712065190
      0.1734645069
      0.1756290942
      0.1776966155
      0.1797087789
      0.1817633361
      0.1839856952
      0.1864810735
      0.1892958730
      0.1924090832
      0.1957489252
      0.1992121041
      0.2026776969
      0.2060211003
      0.2091222703
      0.2118636519
      0.2141324282
      0.2158380002
      0.2169264704
      0.2173820138
      0.2172293663
      0.2165464461
      0.2154779583
      0.2142287791
      0.2130273879
      0.2120853961
      0.2115752399
      0.2116113156
      0.2122217268
      0.2133303881
      0.2147770524
      0.2163685262
      0.2179270685
      0.2193140537
      0.2204334885
      0.2212268114
      0.2216582596
      0.2216873914
      0.2212448120
      0.2202413231
      0.2186111957
      0.2163535655
      0.2135463506
      0.2103377581
      0.2069218159
      0.2034985274
      0.2002321780
      0.1972295046
      0.1945393234
      0.1921603978
      0.1900504231
      0.1881305277
      0.1862833798
      0.1843576431
      0.1821872443
      0.1796147823
      0.1765130311
      0.1728124470
      0.1685268283
      0.1637473702
      0.1586002707
      0.1532023400
      0.1476368308
      0.1419442445
      0.1361281127
      0.1301743686
      0.1240665689
      0.1177885309
      0.1113311425
      0.1047197580
      0.0980448276
      0.0914593190
      0.0851348639
      0.0792050362
      0.0737304017
      0.0687043220
      0.0640881136
      0.0598386824
      0.0559096895
      0.0522417352
      0.0487543195
      0.0453369766
      0.0418490246
      0.0381458960
      0.0341309719
      0.0298022237
      0.0252477266
      0.0205830969
      0.0158867743
      0.0111836847
      0.0064689424
      0.0017372677
     -0.0029968387
     -0.0076869843
     -0.0122566279
     -0.0166194867
     -0.0207034089
     -0.0244564023
     -0.0278343800
     -0.0307926647
     -0.0333006419
     -0.0353722312
     -0.0370845422
     -0.0385649353
     -0.0399512574
     -0.0413498245
     -0.0428164937
     -0.0443641581
     -0.0459819809
     -0.0476551168
     -0.0493776463
     -0.0511500500
     -0.0529592931
     -0.0547529534
     -0.0564251021
     -0.0578242242
     -0.0587840453
     -0.0591696464
     -0.0589211397
     -0.0580756329
     -0.0567573123
     -0.0551429540
     -0.0534249879
     -0.0517862625
     -0.0503837317
     -0.0493376888
     -0.0487312675
     -0.0486149862
     -0.0489991270
     -0.0498347655
     -0.0510062240
     -0.0523490012
     -0.0536870435
     -0.0548710190
     -0.0557984337
     -0.0564156324
     -0.0567194223
     -0.0567632318
     -0.0566502251
     -0.0565024875
     -0.0564268418
     -0.0565075800
     -0.0568213612
     -0.0574365295
     -0.0583820306
     -0.0596162751
     -0.0610252135
     -0.0624419935
     -0.0636722147
     -0.0645283535
     -0.0648716763
     -0.0646401644
     -0.0638502985
     -0.0625844896
     -0.0609784573
     -0.0592098646
     -0.0574852563
     -0.0560216531
     -0.0550061464
     -0.0545277372
     -0.0545287393
     -0.0548326708
     -0.0552291200
     -0.0555454418
     -0.0556744263
     -0.0555722676
     -0.0552396476
     -0.0546921343
     -0.0539384075
     -0.0529793277
     -0.0518153012
     -0.0504514910
     -0.0489055291
     -0.0472162068
     -0.0454468615
     -0.0436841063
     -0.0420349687
     -0.0406233557
     -0.0395818464
     -0.0390304998
     -0.0390412584
     -0.0396027677
     -0.0406077579
     -0.0418757573
     -0.0432039909
     -0.0444194078
     -0.0453996770
     -0.0460568853
     -0.0463146828
     -0.0461031459
     -0.0453655273
     -0.0440762416
     -0.0422733314
     -0.0400844440
     -0.0377219133
     -0.0354504175
     -0.0335534364
     -0.0323114805
     -0.0319730081
     -0.0326996334
     -0.0345071256
     -0.0372487903
     -0.0406552702
     -0.0443978980
     -0.0481444113
     -0.0515977368
     -0.0545163788
     -0.0567232743
     -0.0581117980
     -0.0586448349
     -0.0583442450
     -0.0572839305
     -0.0555891916
     -0.0534247234
     -0.0509705096
     -0.0484082699
     -0.0459219068
     -0.0436876602
     -0.0418463983
     -0.0404768884
     -0.0395839438
     -0.0391043238
     -0.0389267690
     -0.0389195196
     -0.0389657617
     -0.0389952883
     -0.0389856994
     -0.0389368609
     -0.0388486385
     -0.0387152359
     -0.0385321192
     -0.0383088589
     -0.0380852371
     -0.0379453003
     -0.0380121171
     -0.0384210758
     -0.0392929167
     -0.0407123044
     -0.0427053459
     -0.0452291816
     -0.0481800884
     -0.0513998084
     -0.0546790212
     -0.0577752367
     -0.0604408979
     -0.0624537170
     -0.0636447594
     -0.0639101714
     -0.0632112175
     -0.0615786463
     -0.0591144487
     -0.0559857264
     -0.0524182916
     -0.0486846380
     -0.0450770929
     -0.0418720730
     -0.0392960422
     -0.0374960788
     -0.0365180299
     -0.0363077074
     -0.0367404148
     -0.0376552604
     -0.0388784818
     -0.0402429923
     -0.0416062772
     -0.0428649299
     -0.0439661928
     -0.0449029282
     -0.0456833355
     -0.0463029779
     -0.0467512347
     -0.0470374525
     -0.0471978486
     -0.0472775698
     -0.0473125614
     -0.0473252237
     -0.0473265536
     -0.0473151207
     -0.0472782291
     -0.0472096428
     -0.0471409932
     -0.0471601710
     -0.0473937616
     -0.0479583889
     -0.0489154309
     -0.0502617247
     -0.0519463569
     -0.0538804717
     -0.0559402183
     -0.0579872131
     -0.0599030480
     -0.0616056621
     -0.0630267486
     -0.0640697330
     -0.0645931587
     -0.0644328073
     -0.0634305030
     -0.0614538752
     -0.0584242940
     -0.0543567725
     -0.0493896715
     -0.0437834039
     -0.0378864855
     -0.0320809036
     -0.0267208237
     -0.0220809430
     -0.0183297880
     -0.0155307148
     -0.0136591019
     -0.0126281511
     -0.0123234317
     -0.0126279136
     -0.0134178344
     -0.0145463170
     -0.0158406254
     -0.0171140712
     -0.0181848519
     -0.0188956372
     -0.0191254709
     -0.0187913403
     -0.0178451240
     -0.0162730478
     -0.0141027644
     -0.0114155924
     -0.0083531952
     -0.0051148082
     -0.0019472982
      0.0008826163
      0.0031393154
      0.0046663997
      0.0054044039
      0.0053821909
      0.0047009629
      0.0035202440
      0.0020445897
      0.0005015525
     -0.0008956552
     -0.0019873839
     -0.0026848915
     -0.0029575708
     -0.0028074672
     -0.0022556097
     -0.0013455765
     -0.0001504448
      0.0012339408
      0.0027132260
      0.0042178622
      0.0057034180
      0.0071318010
      0.0084608030
      0.0096584838
      0.0107258921
      0.0116998423
      0.0126334568
      0.0135742379
      0.0145473639
      0.0155427745
      0.0165120997
      0.0173762850
      0.0180396643
      0.0184153914
      0.0184624027
      0.0182113405
      0.0177528989
      0.0171912536
      0.0165985096
      0.0160083640
      0.0154477600
      0.0149598932
      0.0145865707
      0.0143397450
      0.0142032206
      0.0141569246
      0.0141918249
      0.0143054686
      0.0144876363
      0.0147026675
      0.0148755684
      0.0148967681
      0.0146483704
      0.0140338261
      0.0129935332
      0.0115073044
      0.0095970156
      0.0073315874
      0.0048186081
      0.0021749616
     -0.0005092341
     -0.0031934064
     -0.0058839582
     -0.0086071435
     -0.0113795297
     -0.0142064551
     -0.0171051621
     -0.0201144591
     -0.0232757572
     -0.0266115703
     -0.0301220659
     -0.0337885916
     -0.0375639535
     -0.0413507037
     -0.0449972264
     -0.0483352393
     -0.0512362458
     -0.0536447912
     -0.0555744767
     -0.0570796654
     -0.0582217984
     -0.0590466112
     -0.0595802665
     -0.0598387420
     -0.0598391071
     -0.0596061647
     -0.0591749549
     -0.0585954525
     -0.0579381324
     -0.0572880171
     -0.0567288920
     -0.0563343316
     -0.0561655872
     -0.0562637709
     -0.0566357151
     -0.0572439022
     -0.0580088869
     -0.0588249117
     -0.0595847331
     -0.0602087341
     -0.0606645420
     -0.0609607249
     -0.0611230806
     -0.0611805059
     -0.0611688085
     -0.0611352436
     -0.0611301698
     -0.0611927509
     -0.0613434091
     -0.0615849830
     -0.0619100481
     -0.0623106547
     -0.0627823845
     -0.0633225068
     -0.0639318004
     -0.0646221712
     -0.0654191971
     -0.0663498640
     -0.0674215034
     -0.0686082467
     -0.0698533505
     -0.0710854977
     -0.0722420067
     -0.0732863694
     -0.0742093623
     -0.0750158429
     -0.0757083222
     -0.0762772039
     -0.0767090619
     -0.0770161599
     -0.0772617757
     -0.0775461271
     -0.0779579729
     -0.0785344169
     -0.0792539716
     -0.0800421983
     -0.0807654858
     -0.0812328085
     -0.0812276602
     -0.0805445686
     -0.0790055841
     -0.0764666125
     -0.0728195161
     -0.0679848045
     -0.0619026124
     -0.0545305274
     -0.0458354801
     -0.0357663259
     -0.0242287219
     -0.0110972775
      0.0037434783
      0.0203700066
      0.0388127267
      0.0590467080
      0.0809651986
      0.1043434888
      0.1288098246
      0.1538354158
      0.1787411720
      0.2027184218
      0.2248751670
      0.2443120182
      0.2601997554
      0.2718221843
      0.2785773277
      0.2799605429
      0.2755617201
      0.2650814950
      0.2483482957
      0.2253283560
      0.1961402148
      0.1610773355
      0.1206223369
      0.0754448324
      0.0263895448
     -0.0255430434
     -0.0792279094
     -0.1334595233
     -0.1870039254
     -0.2386530042
     -0.2872820795
     -0.3319111764
     -0.3717544675
     -0.4062401056
     -0.4350034297
     -0.4578750432
     -0.4748721719
     -0.4861811697
     -0.4921192527
     -0.4930824637
     -0.4894975126
     -0.4817998707
     -0.4704411030
     -0.4559016824
     -0.4386893213
     -0.4193278253
     -0.3983436227
     -0.3762497902
     -0.3535277545
     -0.3306093216
     -0.3078631163
     -0.2855923176
     -0.2640436888
     -0.2434163839
     -0.2238630205
     -0.2054856718
     -0.1883321106
     -0.1723952740
     -0.1576196849
     -0.1439157426
     -0.1311767697
     -0.1192928180
     -0.1081638038
     -0.0977138504
     -0.0878979489
     -0.0786957294
     -0.0700988621
     -0.0620990805
     -0.0546824336
     -0.0478334054
     -0.0415436514
     -0.0358144790
     -0.0306491815
     -0.0260414965
     -0.0219687037
     -0.0183980558
     -0.0153083904
     -0.0127089452
     -0.0106329322
     -0.0091079026
     -0.0081266621
     -0.0076391567
     -0.0075647007
     -0.0078125754
     -0.0083045820
     -0.0089930221
     -0.0098675322
     -0.0109547721
     -0.0123096108
     -0.0139804678
     -0.0159465801
     -0.0180619061
     -0.0200499743
     -0.0215628725
     -0.0222741924
     -0.0219565835
     -0.0205143504
     -0.0179740116
     -0.0144529538
     -0.0101304427
     -0.0052324031
     -0.0000195361
      0.0052326471
      0.0102609182
      0.0148401577
      0.0187943634
      0.0219883621
      0.0243174657
      0.0257151183
      0.0261753462
      0.0257672761
      0.0246298686
      0.0229578540
      0.0209852364
      0.0189585779
      0.0171042234
      0.0156065542
      0.0146003878
      0.0141667267
      0.0143300910
      0.0150636965
      0.0163004044
      0.0179416388
      0.0198616218
      0.0219090171
      0.0239121895
      0.0256962385
      0.0271048136
      0.0280096047
      0.0283173025
      0.0279948954
      0.0270916019
      0.0257317740
      0.0241072997
      0.0224847626
      0.0211841278
      0.0205144864
      0.0207105558
      0.0218997374
      0.0240951627
      0.0272016898
      0.0310266223
      0.0353010260
      0.0397214890
      0.0440064929
      0.0479488522
      0.0514464416
      0.0544992387
      0.0571706071
      0.0595327429
      0.0616294518
      0.0634697974
      0.0650393292
      0.0663119331
      0.0672598407
      0.0678661987
      0.0681367517
      0.0681027025
      0.0678156614
      0.0673433021
      0.0667704418
      0.0662005842
      0.0657519847
      0.0655444935
      0.0656784400
      0.0662158653
      0.0671725124
      0.0685196817
      0.0701928958
      0.0721064731
      0.0741750151
      0.0763358250
      0.0785592794
      0.0808464959
      0.0832219645
      0.0857203752
      0.0883661807
      0.0911548883
      0.0940482765
      0.0969826579
      0.0998791978
      0.1026538089
      0.1052315757
      0.1075612903
      0.1096215397
      0.1114220321
      0.1130080968
      0.1144653410
      0.1159133241
      0.1174854860
      0.1193072423
      0.1214853823
      0.1241107285
      0.1272612512
      0.1309917271
      0.1353148073
      0.1401851028
      0.1454877257
      0.1510347277
      0.1565813273
      0.1618645936
      0.1666527390
      0.1707910597
      0.1742313951
      0.1770332456
      0.1793340296
      0.1813029200
      0.1830993891
      0.1848507226
      0.1866481453
      0.1885498017
      0.1905826330
      0.1927461177
      0.1950197369
      0.1973697394
      0.1997503191
      0.2021023035
      0.2043567002
      0.2064445764
      0.2083075643
      0.2099038363
      0.2112094760
      0.2122178972
      0.2129379958
      0.2133918107
      0.2136134505
      0.2136476040
      0.2135439068
      0.2133507133
      0.2131139338
      0.2128779292
      0.2126811147
      0.2125447243
      0.2124615014
      0.2123906612
      0.2122593969
      0.2119715214
      0.2114279270
      0.2105565071
      0.2093338221
      0.2077839822
      0.2059672028
      0.2039783895
      0.2019450814
      0.1999998838
      0.1982380152
      0.1966963112
      0.1953706741
      0.1942595243
      0.1934077591
      0.1929143220
      0.1928806305
      0.1933354288
      0.1941994280
      0.1953004748
      0.1964014471
      0.1972200572
      0.1974518001
      0.1968019456
      0.1950195283
      0.1919291168
      0.1874597222
      0.1816623360
      0.1747023314
      0.1668242812
      0.1583061814
      0.1494223922
      0.1404203922
      0.1315052658
      0.1228341162
      0.1145257726
      0.1066734493
      0.0993419886
      0.0925542787
      0.0862882957
      0.0804971680
      0.0751438811
      0.0702248514
      0.0657623336
      0.0617824458
      0.0583077073
      0.0553512760
      0.0528867617
      0.0508113280
      0.0489467829
      0.0470901467
      0.0450744741
      0.0427955315
      0.0401987582
      0.0372562855
      0.0339642204
      0.0303573813
      0.0265155025
      0.0225465577
      0.0185527410
      0.0145969642
      0.0106915198
      0.0068142642
      0.0029344931
     -0.0009663214
     -0.0048799817
     -0.0087679792
     -0.0125742406
     -0.0162466522
     -0.0197573565
     -0.0231123380
     -0.0263374113
     -0.0294480454
     -0.0324344225
     -0.0352741852
     -0.0379527509
     -0.0404717848
     -0.0428452566
     -0.0450906754
     -0.0472193472
     -0.0492274091
     -0.0510943793
     -0.0527932569
     -0.0543017946
     -0.0556021668
     -0.0566724800
     -0.0574841909
     -0.0580090694
     -0.0582289658
     -0.0581471659
     -0.0578005239
     -0.0572597533
     -0.0566119961
     -0.0559372380
     -0.0552916415
     -0.0547073856
     -0.0542031229
     -0.0537849925
     -0.0534392856
     -0.0531289130
     -0.0527856611
     -0.0522992164
     -0.0515325032
     -0.0503712744
     -0.0487722456
     -0.0467782989
     -0.0445057340
     -0.0421240367
     -0.0398363061
     -0.0378563106
     -0.0363814943
     -0.0355667621
     -0.0355007388
     -0.0361897796
     -0.0375591740
     -0.0394709408
     -0.0417489037
     -0.0442028046
     -0.0466437675
     -0.0488917194
     -0.0507833362
     -0.0521844439
     -0.0530085079
     -0.0532415584
     -0.0529575199
     -0.0523043461
     -0.0514674112
     -0.0506334119
     -0.0499673337
     -0.0496004522
     -0.0496192910
     -0.0500477813
     -0.0508326329
     -0.0518543310
     -0.0529684760
     -0.0540524423
     -0.0550295375
     -0.0558707677
     -0.0565827191
     -0.0571655557
     -0.0575442314
     -0.0575322621
     -0.0568752624
     -0.0553523004
     -0.0528698713
     -0.0494930707
     -0.0454144366
     -0.0409095101
     -0.0363108106
     -0.0319846533
     -0.0282910839
     -0.0255334489
     -0.0239126682
     -0.0234980341
     -0.0242277756
     -0.0259400699
     -0.0284148976
     -0.0314120725
     -0.0347043835
     -0.0380964428
     -0.0414182805
     -0.0445066169
     -0.0471997261
     -0.0493560471
     -0.0508836545
     -0.0517577566
     -0.0520162620
     -0.0517384969
     -0.0510143749
     -0.0499164090
     -0.0484898351
     -0.0467597768
     -0.0447395854
     -0.0424364917
     -0.0398671478
     -0.0370812938
     -0.0341725834
     -0.0312650725
     -0.0284836348
     -0.0259271059
     -0.0236671008
     -0.0217745174
     -0.0203384850
     -0.0194492228
     -0.0191653874
     -0.0195018612
     -0.0204392616
     -0.0219332464
     -0.0239152424
     -0.0262881331
     -0.0289220065
     -0.0316651538
     -0.0343763307
     -0.0369502790
     -0.0393100455
     -0.0413797945
     -0.0430691317
     -0.0442799851
     -0.0449268483
     -0.0449595116
     -0.0443824641
     -0.0432659090
     -0.0417415015
     -0.0399794914
     -0.0381576531
     -0.0364390910
     -0.0349600352
     -0.0338184126
     -0.0330666788
     -0.0327143371
     -0.0327329449
     -0.0330609120
     -0.0336157382
     -0.0343144536
     -0.0350942090
     -0.0359244049
     -0.0368037187
     -0.0377455950
     -0.0387680456
     -0.0398905091
     -0.0411182567
     -0.0424131565
     -0.0436799303
     -0.0447750352
     -0.0455164276
     -0.0456991456
     -0.0451458953
     -0.0437788591
     -0.0416604169
     -0.0389792137
     -0.0360008106
     -0.0330128297
     -0.0302811954
     -0.0280162524
     -0.0263439175
     -0.0252902005
     -0.0247934368
     -0.0247421507
     -0.0250176825
     -0.0255280267
     -0.0262334999
     -0.0271550864
     -0.0283498373
     -0.0298612192
     -0.0316750519
     -0.0337052085
     -0.0358093828
     -0.0378188640
     -0.0395662077
     -0.0409052260
     -0.0417255200
     -0.0419598147
     -0.0415809825
     -0.0405985415
     -0.0390678495
     -0.0371027403
     -0.0348690376
     -0.0325601175
     -0.0303704794
     -0.0284678470
     -0.0269618295
     -0.0258780811
     -0.0251497831
     -0.0246368237
     -0.0241665635
     -0.0235709865
     -0.0227058399
     -0.0214558188
     -0.0197346192
     -0.0174914841
     -0.0147266779
     -0.0114997970
     -0.0079174498
     -0.0041093510
     -0.0002136940
      0.0036221794
      0.0072407881
      0.0104842857
      0.0132095227
      0.0152992904
      0.0166672356
      0.0172643159
      0.0170969795
      0.0162523407
      0.0149118118
      0.0133374874
      0.0118292328
      0.0106639778
      0.0100356499
      0.0100162718
      0.0105552115
      0.0115136420
      0.0127127506
      0.0139785279
      0.0151724219
      0.0162010472
      0.0170176942
      0.0176408477
      0.0181784779
      0.0188049935
      0.0196812768
      0.0208834149
      0.0223917589
      0.0241220184
      0.0259583723
      0.0277759731
      0.0294607300
      0.0309279766
      0.0321289413
      0.0330394097
      0.0336441547
      0.0339350030
      0.0339207165
      0.0336307697
      0.0331090093
      0.0324127823
      0.0316177756
      0.0308099985
      0.0300631989
      0.0294186529
      0.0288840756
      0.0284588281
      0.0281658117
      0.0280501526
      0.0281384084
      0.0284008589
      0.0287502315
      0.0290690958
      0.0292450190
      0.0292003099
      0.0289076082
      0.0283920504
      0.0277294181
      0.0270352997
      0.0264283419
      0.0259795878
      0.0256872568
      0.0254916642
      0.0253098123
      0.0250641517
      0.0246913675
      0.0241372660
      0.0233559906
      0.0223196391
      0.0210313108
      0.0195320696
      0.0178943574
      0.0162038803
      0.0145397354
      0.0129600484
      0.0114966771
      0.0101594059
      0.0089429989
      0.0078275315
      0.0067705689
      0.0056995205
      0.0045137354
      0.0031029014
      0.0013801125
     -0.0006879648
     -0.0030757475
     -0.0057218922
     -0.0085631143
     -0.0115594650
     -0.0147055229
     -0.0180253331
     -0.0215472598
     -0.0252684653
     -0.0291328747
     -0.0330369808
     -0.0368500538
     -0.0404241756
     -0.0435953289
     -0.0461995341
     -0.0481070466
     -0.0492539406
     -0.0496551283
     -0.0493917018
     -0.0485847071
     -0.0473801345
     -0.0459449999
     -0.0444556437
     -0.0430748388
     -0.0419319905
     -0.0411197171
     -0.0407000184
     -0.0407032892
     -0.0411230996
     -0.0419205539
     -0.0430358350
     -0.0443981439
     -0.0459324829
     -0.0475621484
     -0.0492055863
     -0.0507761762
     -0.0521974415
     -0.0534282215
     -0.0544796959
     -0.0554152727
     -0.0563321598
     -0.0573306978
     -0.0584886819
     -0.0598519109
     -0.0614318065
     -0.0631864890
     -0.0649779588
     -0.0665538162
     -0.0676188692
     -0.0679691657
     -0.0675725862
     -0.0665405989
     -0.0650562346
     -0.0633331239
     -0.0615946651
     -0.0600333326
     -0.0587715432
     -0.0578678250
     -0.0573531277
     -0.0572520643
     -0.0575829782
     -0.0583588965
     -0.0595938563
     -0.0612992793
     -0.0634616241
     -0.0660107881
     -0.0688014552
     -0.0716235638
     -0.0742369369
     -0.0764127150
     -0.0779707208
     -0.0788047910
     -0.0788755193
     -0.0781653374
     -0.0766319484
     -0.0741908029
     -0.0707130358
     -0.0660233870
     -0.0599149950
     -0.0521970652
     -0.0427509323
     -0.0315506868
     -0.0186354984
     -0.0040610940
      0.0121349404
      0.0299424566
      0.0493650548
      0.0703794211
      0.0928772017
      0.1166238412
      0.1412524134
      0.1662718505
      0.1910669655
      0.2148967385
      0.2369155735
      0.2562247813
      0.2719326615
      0.2832012475
      0.2892839313
      0.2895677984
      0.2836137712
      0.2711808085
      0.2522278726
      0.2268944532
      0.1954776347
      0.1584264040
      0.1163430884
      0.0699682757
      0.0201500077
     -0.0321821421
     -0.0860329419
     -0.1403655261
     -0.1941368282
     -0.2463158518
     -0.2958779633
     -0.3418084383
     -0.3831384182
     -0.4190106094
     -0.4487639964
     -0.4720092118
     -0.4886566103
     -0.4988872409
     -0.5030946136
     -0.5018250346
     -0.4957205355
     -0.4854594171
     -0.4717011452
     -0.4550512135
     -0.4360543191
     -0.4152136445
     -0.3930191398
     -0.3699538708
     -0.3464637995
     -0.3229217827
     -0.2996227741
     -0.2768050432
     -0.2546693683
     -0.2333866060
     -0.2130920589
     -0.1938695163
     -0.1757428348
     -0.1586925685
     -0.1426857114
     -0.1276921034
     -0.1136820689
     -0.1006251499
     -0.0885029286
     -0.0773206353
     -0.0670997202
     -0.0578635558
     -0.0496307015
     -0.0424034297
     -0.0361470394
     -0.0307827238
     -0.0262021851
     -0.0222886428
     -0.0189307630
     -0.0160249546
     -0.0134696318
     -0.0111565366
     -0.0089669582
     -0.0067864703
     -0.0045304648
     -0.0021553058
      0.0003429939
      0.0029242348
      0.0054984884
      0.0079344753
      0.0100791994
      0.0117822634
      0.0129329916
      0.0135104042
      0.0136124557
      0.0134329917
      0.0132022109
      0.0131250406
      0.0133347306
      0.0138757266
      0.0147216124
      0.0158066675
      0.0170467105
      0.0183472726
      0.0196072850
      0.0207270943
      0.0216318443
      0.0223050024
      0.0228027534
      0.0232320409
      0.0237079784
      0.0243127570
      0.0250677504
      0.0259269327
      0.0267931689
      0.0275473241
      0.0280760918
      0.0282902885
      0.0281361453
      0.0276061241
      0.0267528351
      0.0257051717
      0.0246706847
      0.0239040609
      0.0236532409
      0.0241127778
      0.0253915712
      0.0274931118
      0.0303192604
      0.0337014385
      0.0374426655
      0.0413469970
      0.0452259406
      0.0488988534
      0.0522100329
      0.0550503619
      0.0573567376
      0.0590973459
      0.0602593571
      0.0608316772
      0.0607914180
      0.0601202734
      0.0588415898
      0.0570417158
      0.0548600294
      0.0524609238
      0.0500129014
      0.0476858094
      0.0456494316
      0.0440577343
      0.0430260040
      0.0426109768
      0.0427989177
      0.0435103066
      0.0446226634
      0.0460015573
      0.0475306064
      0.0491330102
      0.0507747270
      0.0524508618
      0.0541725196
      0.0559665412
      0.0578836389
      0.0599979050
      0.0623826981
      0.0650785938
      0.0680876672
      0.0713898391
      0.0749475509
      0.0786965862
      0.0825466886
      0.0863970742
      0.0901529342
      0.0937358215
      0.0970876887
      0.1001663357
      0.1029416472
      0.1054075360
      0.1075934023
      0.1095473245
      0.1113036126
      0.1128708497
      0.1142496541
      0.1154587343
      0.1165466532
      0.1175839081
      0.1186418757
      0.1197691187
      0.1209830716
      0.1222923249
      0.1237321272
      0.1253773272
      0.1273245513
      0.1296612173
      0.1324388087
      0.1356609911
      0.1392884105
      0.1432558447
      0.1474929601
      0.1519355029
      0.1565219611
      0.1611863375
      0.1658583283
      0.1704746634
      0.1749921739
      0.1793832183
      0.1836095750
      0.1875976920
      0.1912397593
      0.1944228411
      0.1970684826
      0.1991631836
      0.2007660121
      0.2019906938
      0.2029737830
      0.2038435787
      0.2047015578
      0.2056234181
      0.2066707462
      0.2078963220
      0.2093421221
      0.2110509872
      0.2130926251
      0.2155486047
      0.2184235752
      0.2215630710
      0.2246758789
      0.2274333388
      0.2295490801
      0.2308065593
      0.2310711294
      0.2303159088
      0.2286376655
      0.2262297869
      0.2233352214
      0.2202255428
      0.2171989530
      0.2145613432
      0.2125808448
      0.2114313990
      0.2111574411
      0.2116900384
      0.2129033953
      0.2146652341
      0.2168477476
      0.2193066627
      0.2218576223
      0.2242744416
      0.2263200432
      0.2278009206
      0.2286103815
      0.2287297547
      0.2281944007
      0.2270489633
      0.2253112048
      0.2229634225
      0.2199811339
      0.2163781673
      0.2122369856
      0.2077119946
      0.2030058652
      0.1983251274
      0.1938383877
      0.1896563321
      0.1858276725
      0.1823400855
      0.1791265458
      0.1760776788
      0.1730617285
      0.1699513942
      0.1666406095
      0.1630397439
      0.1590653807
      0.1546430141
      0.1497208029
      0.1442844719
      0.1383656263
      0.1320375055
      0.1254004389
      0.1185678169
      0.1116587222
      0.1047908589
      0.0980673879
      0.0915639922
      0.0853277221
      0.0793872997
      0.0737634972
      0.0684681013
      0.0634908080
      0.0587884635
      0.0542923734
      0.0499298275
      0.0456435941
      0.0414009169
      0.0371977948
      0.0330623984
      0.0290470626
      0.0252085943
      0.0215956513
      0.0182494968
      0.0152041959
      0.0124758473
      0.0100459186
      0.0078503061
      0.0057788170
      0.0036883180
      0.0014419589
     -0.0010277994
     -0.0036801649
     -0.0064032678
     -0.0091081690
     -0.0118015669
     -0.0145835122
     -0.0175771229
     -0.0208383780
     -0.0243019983
     -0.0277960766
     -0.0311124660
     -0.0340744667
     -0.0365588553
     -0.0384988785
     -0.0399035551
     -0.0408746898
     -0.0415931605
     -0.0422778428
     -0.0431202613
     -0.0441935696
     -0.0453872904
     -0.0464396700
     -0.0470514633
     -0.0469948687
     -0.0461611710
     -0.0445541032
     -0.0422660261
     -0.0394581296
     -0.0363445505
     -0.0331773348
     -0.0302246325
     -0.0277363062
     -0.0259120353
     -0.0248929299
     -0.0247659627
     -0.0255556945
     -0.0272130426
     -0.0296234973
     -0.0326250270
     -0.0360208228
     -0.0395926349
     -0.0431220680
     -0.0464181490
     -0.0493418686
     -0.0518101268
     -0.0537700392
     -0.0551643074
     -0.0559239201
     -0.0559970774
     -0.0553831980
     -0.0541451685
     -0.0524064228
     -0.0503470972
     -0.0481943004
     -0.0461889319
     -0.0445332937
     -0.0433570258
     -0.0427239761
     -0.0426592715
     -0.0431660004
     -0.0442249924
     -0.0457911976
     -0.0477908254
     -0.0501095504
     -0.0525794923
     -0.0549911372
     -0.0571324788
     -0.0588284656
     -0.0599636994
     -0.0604923666
     -0.0604404807
     -0.0598995872
     -0.0590075403
     -0.0579184815
     -0.0567758717
     -0.0556980968
     -0.0547749661
     -0.0540676303
     -0.0536051542
     -0.0533839762
     -0.0533816554
     -0.0535821952
     -0.0539970919
     -0.0546600893
     -0.0555818491
     -0.0566895343
     -0.0578087606
     -0.0587148592
     -0.0592076145
     -0.0591467433
     -0.0584499761
     -0.0570958406
     -0.0551402234
     -0.0527300537
     -0.0500979386
     -0.0475162677
     -0.0452166386
     -0.0433256440
     -0.0418513007
     -0.0407077856
     -0.0397595130
     -0.0388711356
     -0.0379437096
     -0.0369281434
     -0.0358265564
     -0.0346888043
     -0.0336011238
     -0.0326680951
     -0.0319954753
     -0.0316776298
     -0.0317862295
     -0.0323576853
     -0.0333828963
     -0.0348045900
     -0.0365240909
     -0.0384147875
     -0.0403377041
     -0.0421577953
     -0.0437619574
     -0.0450783707
     -0.0460929573
     -0.0468503498
     -0.0474288724
     -0.0479064733
     -0.0483469330
     -0.0488002896
     -0.0492911153
     -0.0498034321
     -0.0502870716
     -0.0506809913
     -0.0509358644
     -0.0510234572
     -0.0509282872
     -0.0506358929
     -0.0501358062
     -0.0494373739
     -0.0485827625
     -0.0476418845
     -0.0466915332
     -0.0457994640
     -0.0450228676
     -0.0444097146
     -0.0439947285
     -0.0437943041
     -0.0438072458
     -0.0440245420
     -0.0444432981
     -0.0450712107
     -0.0459137298
     -0.0469583496
     -0.0481770262
     -0.0495408326
     -0.0510203242
     -0.0525659695
     -0.0540972017
     -0.0555189662
     -0.0567405149
     -0.0576794185
     -0.0582758859
     -0.0585156940
     -0.0584227890
     -0.0580268204
     -0.0573476069
     -0.0564016029
     -0.0552033149
     -0.0537547879
     -0.0520448126
     -0.0500742011
     -0.0478917323
     -0.0456057787
     -0.0433636345
     -0.0413299799
     -0.0396774858
     -0.0385627560
     -0.0380841531
     -0.0382561199
     -0.0390160568
     -0.0402496792
     -0.0418151915
     -0.0435560755
     -0.0453099944
     -0.0469226651
     -0.0482603610
     -0.0492164902
     -0.0497210287
     -0.0497539863
     -0.0493453778
     -0.0485497564
     -0.0474127494
     -0.0459647365
     -0.0442513265
     -0.0423657373
     -0.0404470786
     -0.0386459157
     -0.0370774306
     -0.0357807837
     -0.0347045623
     -0.0337280668
     -0.0326970071
     -0.0314456746
     -0.0298187062
     -0.0277168415
     -0.0251452308
     -0.0222284831
     -0.0191859119
     -0.0162803028
     -0.0137632731
     -0.0118309222
     -0.0105849635
     -0.0100085652
     -0.0099769738
     -0.0102962423
     -0.0107510639
     -0.0111542586
     -0.0113837579
     -0.0113870408
     -0.0111578582
     -0.0107143568
     -0.0100965770
     -0.0093693659
     -0.0086061852
     -0.0078527778
     -0.0070977942
     -0.0062807305
     -0.0053360281
     -0.0042319871
     -0.0029705924
     -0.0015666432
     -0.0000441676
      0.0015451084
      0.0031060844
      0.0045121456
      0.0056457426
      0.0064406549
      0.0068998928
      0.0070867534
      0.0071017570
      0.0070606363
      0.0070786653
      0.0072573232
      0.0076753083
      0.0083858278
      0.0094114216
      0.0107307751
      0.0122635672
      0.0138653331
      0.0153412549
      0.0164760314
      0.0170727838
      0.0169976242
      0.0162160974
      0.0148034655
      0.0129312314
      0.0108371405
      0.0087723723
      0.0069334242
      0.0054210466
      0.0042650043
      0.0034847539
      0.0031110633
      0.0031565430
      0.0035971261
      0.0043935943
      0.0055162949
      0.0069434284
      0.0086392583
      0.0105215069
      0.0124288704
      0.0141141694
      0.0152796535
      0.0156424176
      0.0150054321
      0.0133174667
      0.0107098883
      0.0074942149
      0.0041055591
      0.0009890451
     -0.0015417171
     -0.0034040129
     -0.0047394917
     -0.0058088377
     -0.0068695475
     -0.0081199948
     -0.0097086467
     -0.0117435129
     -0.0142772570
     -0.0172968041
     -0.0207316540
     -0.0244748481
     -0.0284177847
     -0.0324883498
     -0.0366553962
     -0.0408851840
     -0.0450915620
     -0.0491246469
     -0.0527992845
     -0.0559390411
     -0.0584127903
     -0.0601536967
     -0.0611700714
     -0.0615593232
     -0.0615070686
     -0.0612462983
     -0.0609927326
     -0.0609057844
     -0.0611004755
     -0.0616871379
     -0.0627990887
     -0.0645747632
     -0.0670859218
     -0.0702677295
     -0.0739185065
     -0.0777547508
     -0.0814633667
     -0.0847394392
     -0.0873277262
     -0.0890447944
     -0.0897586495
     -0.0893741772
     -0.0878670067
     -0.0853220746
     -0.0819266960
     -0.0779341012
     -0.0736328363
     -0.0693256333
     -0.0653013214
     -0.0617914200
     -0.0589246042
     -0.0567056946
     -0.0550380461
     -0.0537863858
     -0.0528454334
     -0.0521694720
     -0.0517566875
     -0.0516197346
     -0.0517651699
     -0.0521826856
     -0.0528462157
     -0.0537339859
     -0.0548580512
     -0.0562777221
     -0.0580885336
     -0.0604070202
     -0.0633550957
     -0.0670089349
     -0.0713058412
     -0.0759816170
     -0.0806111023
     -0.0847346932
     -0.0879905596
     -0.0901824906
     -0.0912682414
     -0.0913154930
     -0.0904787704
     -0.0889947787
     -0.0871546119
     -0.0852370486
     -0.0834447443
     -0.0818974003
     -0.0806776509
     -0.0798736885
     -0.0795735195
     -0.0798179656
     -0.0805594400
     -0.0816548392
     -0.0828776509
     -0.0839349106
     -0.0844922811
     -0.0842040777
     -0.0827382654
     -0.0797953978
     -0.0751210824
     -0.0685017779
     -0.0597475655
     -0.0486891940
     -0.0352026112
     -0.0192432106
     -0.0008702299
      0.0197347514
      0.0422459505
      0.0661818162
      0.0909198672
      0.1157313958
      0.1398250312
      0.1623937786
      0.1826613694
      0.1999278367
      0.2135980725
      0.2231632322
      0.2281545401
      0.2281318903
      0.2227196395
      0.2116341293
      0.1946706176
      0.1716878414
      0.1426331252
      0.1075996384
      0.0668931901
      0.0210949313
     -0.0289208647
     -0.0820478722
     -0.1370463967
     -0.1926173419
     -0.2474463135
     -0.3002487719
     -0.3498301506
     -0.3951498568
     -0.4353702068
     -0.4698756337
     -0.4982616007
     -0.5203192830
     -0.5360407829
     -0.5456241965
     -0.5494379401
     -0.5479485393
     -0.5416736007
     -0.5311963558
     -0.5171839595
     -0.5003417730
     -0.4813334942
     -0.4607348144
     -0.4390264452
     -0.4165972173
     -0.3937530816
     -0.3707376719
     -0.3477502465
     -0.3249524534
     -0.3024849296
     -0.2805116773
     -0.2592606544
     -0.2390155345
     -0.2200624794
     -0.2026286572
     -0.1868347824
     -0.1726816446
     -0.1600823849
     -0.1489096284
     -0.1390163302
     -0.1302375346
     -0.1224048138
     -0.1153742000
     -0.1090414822
     -0.1033291146
     -0.0981558636
     -0.0934154317
     -0.0889867991
     -0.0847783089
     -0.0807797089
     -0.0770778432
     -0.0738066509
     -0.0710639879
     -0.0688642785
     -0.0671503097
     -0.0658319294
     -0.0648135021
     -0.0639996231
     -0.0632912740
     -0.0625806600
     -0.0617487803
     -0.0606819727
     -0.0593107678
     -0.0576350130
     -0.0557074435
     -0.0535960086
     -0.0513608716
     -0.0490602478
     -0.0467693135
     -0.0445828512
     -0.0425931513
     -0.0408663973
     -0.0394378938
     -0.0383127593
     -0.0374536663
     -0.0367776118
     -0.0361920185
     -0.0356520675
     -0.0351955630
     -0.0349355489
     -0.0350123569
     -0.0355204903
     -0.0364452787
     -0.0376357585
     -0.0388152227
     -0.0396330692
     -0.0397515036
     -0.0389271714
     -0.0370553173
     -0.0341754742
     -0.0304477308
     -0.0261146370
     -0.0214641020
     -0.0167958420
     -0.0123879351
     -0.0084644267
     -0.0051687616
     -0.0025475707
     -0.0005494410
      0.0009552017
      0.0021331375
      0.0031397836
      0.0040835794
      0.0050178966
      0.0059559736
      0.0068852394
      0.0077645616
      0.0085176583
      0.0090476377
      0.0092715295
      0.0091498327
      0.0087065110
      0.0080617284
      0.0074658631
      0.0072686379
      0.0077995127
      0.0092414347
      0.0115881097
      0.0146826068
      0.0182756297
      0.0220646691
      0.0257222112
      0.0289373025
      0.0314871818
      0.0333217494
      0.0345914476
      0.0355736166
      0.0365482084
      0.0377064236
      0.0391297489
      0.0408220217
      0.0427477434
      0.0448488556
      0.0470503196
      0.0492695943
      0.0514298789
      0.0534679145
      0.0553301126
      0.0569754653
      0.0584071055
      0.0597060099
      0.0610198081
      0.0625272095
      0.0644357353
      0.0669812337
      0.0703514218
      0.0745663196
      0.0794277266
      0.0845776200
      0.0896089897
      0.0941712260
      0.0980625600
      0.1013028175
      0.1041371301
      0.1069408357
      0.1100799441
      0.1138026416
      0.1181783080
      0.1230692938
      0.1281442642
      0.1329445988
      0.1369870603
      0.1398840845
      0.1414592713
      0.1418036819
      0.1412317902
      0.1401656866
      0.1390139759
      0.1381038427
      0.1376941651
      0.1380351633
      0.1393962353
      0.1420230120
      0.1460541040
      0.1514563411
      0.1580211222
      0.1654277295
      0.1733396500
      0.1814818978
      0.1896550804
      0.1976824701
      0.2053443342
      0.2123624086
      0.2184396386
      0.2233131677
      0.2267886996
      0.2287564576
      0.2292021513
      0.2282173783
      0.2260031402
      0.2228548229
      0.2191215158
      0.2151564509
      0.2112834305
      0.2077772468
      0.2048457563
      0.2026154846
      0.2011315823
      0.2003930658
      0.2004312277
      0.2013790458
      0.2034504712
      0.2068266869
      0.2115373164
      0.2174225003
      0.2241898030
      0.2315114886
      0.2390798926
      0.2465831339
      0.2536508739
      0.2598576546
      0.2648152411
      0.2683019936
      0.2703454792
      0.2712107897
      0.2713081837
      0.2710680664
      0.2708328068
      0.2707966566
      0.2709949315
      0.2713298500
      0.2716143727
      0.2716131210
      0.2710882723
      0.2698725164
      0.2679340541
      0.2653706372
      0.2623396516
      0.2589831650
      0.2553785145
      0.2515200078
      0.2473360598
      0.2427227199
      0.2375732511
      0.2318091840
      0.2254190594
      0.2184824646
      0.2111542076
      0.2036180645
      0.1960436106
      0.1885637641
      0.1812709719
      0.1742302328
      0.1674998850
      0.1611344963
      0.1551574767
      0.1495300084
      0.1441450715
      0.1388473213
      0.1334653348
      0.1278454512
      0.1218791604
      0.1155165061
      0.1087655127
      0.1016863212
      0.0943813697
      0.0869769007
      0.0796045959
      0.0723966509
      0.0654862449
      0.0589990690
      0.0530406497
      0.0476884991
      0.0429838672
      0.0389178433
      0.0354234055
      0.0323879644
      0.0296784416
      0.0271613859
      0.0247183889
      0.0222614985
      0.0197383706
      0.0171192177
      0.0143771702
      0.0114797922
      0.0083981818
      0.0051278006
      0.0017048363
     -0.0017972166
     -0.0052881618
     -0.0086840056
     -0.0119218854
     -0.0149634276
     -0.0177875105
     -0.0203811079
     -0.0227394234
     -0.0248760004
     -0.0268314201
     -0.0286706109
     -0.0304692555
     -0.0322942883
     -0.0341842622
     -0.0361397713
     -0.0381293036
     -0.0401032642
     -0.0420051776
     -0.0437776111
     -0.0453741886
     -0.0467809886
     -0.0480258837
     -0.0491602384
     -0.0502285436
     -0.0512478352
     -0.0522028692
     -0.0530586354
     -0.0537883826
     -0.0543911271
     -0.0548717789
     -0.0552062988
     -0.0553385392
     -0.0552139282
     -0.0548143759
     -0.0541593768
     -0.0532733500
     -0.0521609746
     -0.0508243740
     -0.0493000187
     -0.0476687141
     -0.0460297950
     -0.0444700792
     -0.0430545434
     -0.0418377817
     -0.0408726782
     -0.0402030759
     -0.0398590304
     -0.0398743637
     -0.0403142422
     -0.0412800722
     -0.0428699367
     -0.0451086760
     -0.0478822589
     -0.0509121455
     -0.0538126081
     -0.0562282428
     -0.0579597466
     -0.0589899123
     -0.0594139136
     -0.0593425818
     -0.0588496514
     -0.0579874963
     -0.0568306148
     -0.0554829538
     -0.0540370382
     -0.0525332913
     -0.0509572737
     -0.0492742248
     -0.0474832244
     -0.0456543155
     -0.0439157076
     -0.0424066596
     -0.0412363298
     -0.0404601730
     -0.0400699005
     -0.0400134437
     -0.0402442813
     -0.0407509990
     -0.0415398702
     -0.0426078103
     -0.0439389013
     -0.0454982445
     -0.0471932739
     -0.0488466024
     -0.0502451137
     -0.0512364842
     -0.0517787896
     -0.0519103035
     -0.0516918190
     -0.0511712246
     -0.0503716506
     -0.0492929667
     -0.0479278192
     -0.0462859496
     -0.0444104038
     -0.0423771106
     -0.0402820967
     -0.0382245742
     -0.0362930745
     -0.0345592126
     -0.0330789946
     -0.0318938904
     -0.0310180746
     -0.0304152500
     -0.0299957544
     -0.0296477340
     -0.0292727854
     -0.0288003050
     -0.0281927381
     -0.0274561141
     -0.0266418550
     -0.0258208867
     -0.0250393450
     -0.0242929626
     -0.0235465243
     -0.0227771476
     -0.0219960939
     -0.0212325267
     -0.0204969645
     -0.0197549369
     -0.0189417638
     -0.0180183221
     -0.0170156732
     -0.0160209518
     -0.0151221640
     -0.0143668232
     -0.0137627367
     -0.0133036263
     -0.0129868947
     -0.0128116123
     -0.0127720842
     -0.0128659904
     -0.0131136198
     -0.0135655487
     -0.0142838787
     -0.0153095825
     -0.0166473947
     -0.0182843264
     -0.0202210378
     -0.0224786084
     -0.0250700321
     -0.0279683769
     -0.0311023071
     -0.0343665220
     -0.0376191102
     -0.0406708680
     -0.0432897434
     -0.0452175178
     -0.0461903475
     -0.0459785350
     -0.0444506034
     -0.0416336879
     -0.0377361402
     -0.0331217721
     -0.0282482393
     -0.0235866457
     -0.0195370018
     -0.0163605940
     -0.0141600752
     -0.0129104415
     -0.0124955121
     -0.0127191851
     -0.0133172534
     -0.0140020242
     -0.0145330131
     -0.0147796711
     -0.0147452122
     -0.0145466467
     -0.0143677192
     -0.0144005418
     -0.0147930300
     -0.0156229781
     -0.0168993007
     -0.0185706746
     -0.0205318574
     -0.0226382427
     -0.0247363523
     -0.0266912710
     -0.0283804275
     -0.0296600927
     -0.0303602107
     -0.0303429849
     -0.0295786150
     -0.0281650163
     -0.0262828860
     -0.0241286512
     -0.0218571108
     -0.0195511449
     -0.0172340125
     -0.0149157159
     -0.0126281828
     -0.0104132108
     -0.0082844095
     -0.0062139053
     -0.0041648140
     -0.0021442412
     -0.0002277492
      0.0014739735
      0.0028802336
      0.0039710738
      0.0047440687
      0.0051524066
      0.0051302300
      0.0046986435
      0.0040233983
      0.0033697789
      0.0030207257
      0.0032177642
      0.0041356580
      0.0058738478
      0.0084416848
      0.0117477188
      0.0156268906
      0.0198981185
      0.0244065523
      0.0290377066
      0.0337190591
      0.0384061076
      0.0430520438
      0.0475842431
      0.0519034117
      0.0558942147
      0.0594257824
      0.0623427480
      0.0644799843
      0.0657115728
      0.0659844205
      0.0653006509
      0.0636871755
      0.0612001382
      0.0579548217
      0.0541395396
      0.0499961451
      0.0457865335
      0.0417669006
      0.0381653756
      0.0351557173
      0.0328396372
      0.0312490519
      0.0303603634
      0.0301055834
      0.0303746238
      0.0310237743
      0.0319069438
      0.0329101421
      0.0339553617
      0.0349810049
      0.0359330103
      0.0367764048
      0.0375106670
      0.0381744057
      0.0388367400
      0.0395794809
      0.0404753424
      0.0415648036
      0.0428402834
      0.0442524478
      0.0457323827
      0.0472038724
      0.0485833809
      0.0497833453
      0.0507127084
      0.0512646176
      0.0513086058
      0.0507090800
      0.0493672639
      0.0472623482
      0.0444678701
      0.0411376618
      0.0374748148
      0.0337027609
      0.0300453454
      0.0267075095
      0.0238536131
      0.0215909164
      0.0199548826
      0.0188869480
      0.0182262380
      0.0177495982
      0.0172420386
      0.0165456347
      0.0155703230
      0.0142850205
      0.0127081294
      0.0109013943
      0.0089594517
      0.0069924556
      0.0051027318
      0.0033540814
      0.0017488857
      0.0002384670
     -0.0012393368
     -0.0027341451
     -0.0042856070
     -0.0059287348
     -0.0076803644
     -0.0095189149
     -0.0113775535
     -0.0131565407
     -0.0147483116
     -0.0160662699
     -0.0170729253
     -0.0177966710
     -0.0183224976
     -0.0187678766
     -0.0192659665
     -0.0199510921
     -0.0209345352
     -0.0222770516
     -0.0239679758
     -0.0259229094
     -0.0280126613
     -0.0301085413
     -0.0321139880
     -0.0339755341
     -0.0356748588
     -0.0372020230
     -0.0385280363
     -0.0395972878
     -0.0403430872
     -0.0407197997
     -0.0407300182
     -0.0404238962
     -0.0398831554
     -0.0392158031
     -0.0385519527
     -0.0380192697
     -0.0377047881
     -0.0376212038
     -0.0376966745
     -0.0378064886
     -0.0378274396
     -0.0376666449
     -0.0372588001
     -0.0365721248
     -0.0356370807
     -0.0345515348
     -0.0334213302
     -0.0322862901
     -0.0311152600
     -0.0298620407
     -0.0285091344
     -0.0270704478
     -0.0255841948
     -0.0241272692
     -0.0228401031
     -0.0219248459
     -0.0216013156
     -0.0220451355
     -0.0233443100
     -0.0254878439
     -0.0283754487
     -0.0318319201
     -0.0356205255
     -0.0394627601
     -0.0430723093
     -0.0461999066
     -0.0486736968
     -0.0504144318
     -0.0514107384
     -0.0516645238
     -0.0511479452
     -0.0498002097
     -0.0475438274
     -0.0442922823
     -0.0399503820
     -0.0344175883
     -0.0275936667
     -0.0193805099
     -0.0096827792
      0.0015819515
      0.0144667486
      0.0289906375
      0.0451510176
      0.0629364029
      0.0823198929
      0.1032347456
      0.1255514473
      0.1490667760
      0.1734928042
      0.1984320879
      0.2233511806
      0.2475767881
      0.2703135312
      0.2906738222
      0.3077316582
      0.3205973506
      0.3284716308
      0.3306646943
      0.3266174495
      0.3159452081
      0.2984859347
      0.2743265033
      0.2437994629
      0.2074564695
      0.1660228670
      0.1203312501
      0.0712496489
      0.0196378622
     -0.0336482003
     -0.0877145678
     -0.1415864229
     -0.1941963881
     -0.2444035113
     -0.2910453081
     -0.3330345452
     -0.3694711924
     -0.3997216523
     -0.4234578311
     -0.4406660199
     -0.4516168833
     -0.4568023384
     -0.4568645954
     -0.4525262117
     -0.4445136786
     -0.4334850311
     -0.4199904799
     -0.4044774175
     -0.3873248398
     -0.3688868582
     -0.3495249748
     -0.3296139240
     -0.3095198572
     -0.2895672917
     -0.2700129449
     -0.2510387301
     -0.2327611297
     -0.2152445167
     -0.1985130608
     -0.1825626642
     -0.1673713624
     -0.1529061943
     -0.1391255260
     -0.1259840131
     -0.1134467646
     -0.1015044227
     -0.0901771560
     -0.0795091838
     -0.0695590451
     -0.0603873320
     -0.0520452112
     -0.0445645116
     -0.0379504152
     -0.0321827754
     -0.0272291359
     -0.0230633747
     -0.0196752660
     -0.0170571096
     -0.0151762897
     -0.0139590334
     -0.0132922092
     -0.0130336424
     -0.0130247660
     -0.0131044229
     -0.0131256552
     -0.0129702045
     -0.0125508951
     -0.0118062897
     -0.0107016172
     -0.0092369812
     -0.0074508255
     -0.0054128957
     -0.0032086400
     -0.0009202476
      0.0013853944
      0.0036530441
      0.0058203572
      0.0077962624
      0.0094550904
      0.0106519284
      0.0112402365
      0.0110787125
      0.0100428322
      0.0080542173
      0.0051165945
      0.0013373719
     -0.0030712725
     -0.0077952105
     -0.0124179637
     -0.0164477527
     -0.0194039624
     -0.0209346563
     -0.0208928790
     -0.0193339400
     -0.0164590720
     -0.0125578260
     -0.0079732975
     -0.0030684960
      0.0018253045
      0.0064627789
      0.0107157789
      0.0145655721
      0.0180551205
      0.0212220885
      0.0240492765
      0.0264614169
      0.0283629317
      0.0296871830
      0.0304364562
      0.0306957979
      0.0306049678
      0.0303053632
      0.0299013071
      0.0294528492
      0.0289916750
      0.0285438020
      0.0281381179
      0.0277872328
      0.0274614170
      0.0270990264
      0.0266615804
      0.0261855926
      0.0257784594
      0.0255612750
      0.0256138984
      0.0259643402
      0.0266092997
      0.0275260508
      0.0286611244
      0.0299233031
      0.0312106423
      0.0324572287
      0.0336612947
      0.0348843671
      0.0362324044
      0.0378200486
      0.0397262350
      0.0419648029
      0.0444762334
      0.0471308604
      0.0497448929
      0.0521122217
      0.0540403798
      0.0553775840
      0.0560282581
      0.0559619628
      0.0552244894
      0.0539562367
      0.0524000823
      0.0508669205
      0.0496612303
      0.0490145572
      0.0490628742
      0.0498561412
      0.0513764210
      0.0535596460
      0.0563146397
      0.0595299117
      0.0630829781
      0.0668680593
      0.0708198324
      0.0749028176
      0.0790752620
      0.0832628459
      0.0873587430
      0.0912373960
      0.0947715417
      0.0978551731
      0.1004261747
      0.1024787426
      0.1040657386
      0.1052867249
      0.1062600911
      0.1070994735
      0.1079099253
      0.1087980568
      0.1098872200
      0.1113277599
      0.1132870987
      0.1159161925
      0.1193116382
      0.1234954968
      0.1284183115
      0.1339750588
      0.1400183588
      0.1463565230
      0.1527452767
      0.1588958949
      0.1645112783
      0.1693361700
      0.1732001603
      0.1760387421
      0.1778957248
      0.1789129674
      0.1793033332
      0.1793091744
      0.1791647524
      0.1790719181
      0.1791831106
      0.1795838028
      0.1802771091
      0.1811827272
      0.1821543872
      0.1830119044
      0.1835857630
      0.1837629229
      0.1835101843
      0.1828649938
      0.1819130480
      0.1807830483
      0.1796744466
      0.1788785160
      0.1787115633
      0.1793619990
      0.1807770729
      0.1826908886
      0.1847571284
      0.1866753697
      0.1882418841
      0.1893439740
      0.1899514347
      0.1901163012
      0.1899554878
      0.1896058470
      0.1891727895
      0.1887006313
      0.1881686002
      0.1874989569
      0.1865783930
      0.1853013337
      0.1836177856
      0.1815525442
      0.1791893244
      0.1766402274
      0.1740161926
      0.1714033186
      0.1688512266
      0.1663766652
      0.1639712155
      0.1616026163
      0.1592206061
      0.1567759961
      0.1542299390
      0.1515336782
      0.1486070305
      0.1453486383
      0.1416685581
      0.1375186294
      0.1329073906
      0.1278923005
      0.1225525662
      0.1169600412
      0.1111641154
      0.1051958874
      0.0990845710
      0.0928718671
      0.0866154507
      0.0803879425
      0.0742762163
      0.0683708787
      0.0627425686
      0.0574210994
      0.0523924232
      0.0476133339
      0.0430350639
      0.0386215523
      0.0343491584
      0.0301912948
      0.0261135586
      0.0220956653
      0.0181565825
      0.0143506983
      0.0107392324
      0.0073630163
      0.0042304816
      0.0013163143
     -0.0014402868
     -0.0041345148
     -0.0068759806
     -0.0097543774
     -0.0128183607
     -0.0160795525
     -0.0195252243
     -0.0231247768
     -0.0268318392
     -0.0305829253
     -0.0342925750
     -0.0378571711
     -0.0411740951
     -0.0441645198
     -0.0467891172
     -0.0490540825
     -0.0510074347
     -0.0527316853
     -0.0543366782
     -0.0559415184
     -0.0576402992
     -0.0594743416
     -0.0614339374
     -0.0634789690
     -0.0655503124
     -0.0675661191
     -0.0694258213
     -0.0710357800
     -0.0723377094
     -0.0733221322
     -0.0740319639
     -0.0745537505
     -0.0749845430
     -0.0753911361
     -0.0757994652
     -0.0762132928
     -0.0766234994
     -0.0769960657
     -0.0772673115
     -0.0773708448
     -0.0772780851
     -0.0770137534
     -0.0766367763
     -0.0762091056
     -0.0757749528
     -0.0753549337
     -0.0749436691
     -0.0745075196
     -0.0739983097
     -0.0733885765
     -0.0727019608
     -0.0720137060
     -0.0714245141
     -0.0710233152
     -0.0708517358
     -0.0708818585
     -0.0710251704
     -0.0711737946
     -0.0712332353
     -0.0711217001
     -0.0707698539
     -0.0701421425
     -0.0692546815
     -0.0681751743
     -0.0670122951
     -0.0658960789
     -0.0649514496
     -0.0642744452
     -0.0639180541
     -0.0638892055
     -0.0641525239
     -0.0646373332
     -0.0652518347
     -0.0659055635
     -0.0665322244
     -0.0671021417
     -0.0676171407
     -0.0680879653
     -0.0685062483
     -0.0688337907
     -0.0690193176
     -0.0690243244
     -0.0688377619
     -0.0684781298
     -0.0679899305
     -0.0674372017
     -0.0668937042
     -0.0664297268
     -0.0660956874
     -0.0659039021
     -0.0658189356
     -0.0657708198
     -0.0656899661
     -0.0655409098
     -0.0653284192
     -0.0650796890
     -0.0648319274
     -0.0646337122
     -0.0645409971
     -0.0645993575
     -0.0648224428
     -0.0651789010
     -0.0655926242
     -0.0659535676
     -0.0661379173
     -0.0660340041
     -0.0655631125
     -0.0646893382
     -0.0634182096
     -0.0617859811
     -0.0598525107
     -0.0577094704
     -0.0554888509
     -0.0533466674
     -0.0514276698
     -0.0498409159
     -0.0486538783
     -0.0478912964
     -0.0475372151
     -0.0475468449
     -0.0478643104
     -0.0484360307
     -0.0492153317
     -0.0501639955
     -0.0512564667
     -0.0524809286
     -0.0538267419
     -0.0552647002
     -0.0567437820
     -0.0582064763
     -0.0595950484
     -0.0608391687
     -0.0618490577
     -0.0625339970
     -0.0628355071
     -0.0627448782
     -0.0622905381
     -0.0615167208
     -0.0604784302
     -0.0592475608
     -0.0579116642
     -0.0565601774
     -0.0552670583
     -0.0540852547
     -0.0530592352
     -0.0522413254
     -0.0516906381
     -0.0514492728
     -0.0515115783
     -0.0518108085
     -0.0522368439
     -0.0526778847
     -0.0530629940
     -0.0533819087
     -0.0536795557
     -0.0540402271
     -0.0545651987
     -0.0553398170
     -0.0564021841
     -0.0577302873
     -0.0592499226
     -0.0608583800
     -0.0624477826
     -0.0638980940
     -0.0650476292
     -0.0657003969
     -0.0656921789
     -0.0649618506
     -0.0635670945
     -0.0616375171
     -0.0593128577
     -0.0567202307
     -0.0539922155
     -0.0512840524
     -0.0487671755
     -0.0466144979
     -0.0449896716
     -0.0440295525
     -0.0438183434
     -0.0443749726
     -0.0456630401
     -0.0476063974
     -0.0500946566
     -0.0529826432
     -0.0560964346
     -0.0592486784
     -0.0622564964
     -0.0649549142
     -0.0672031567
     -0.0688893050
     -0.0699390322
     -0.0703191981
     -0.0700226277
     -0.0690442994
     -0.0673784018
     -0.0650467351
     -0.0621309616
     -0.0587824136
     -0.0552099310
     -0.0516487509
     -0.0483148247
     -0.0453686416
     -0.0429044887
     -0.0409540422
     -0.0394924954
     -0.0384475701
     -0.0377117023
     -0.0371561274
     -0.0366489552
     -0.0360761881
     -0.0353563316
     -0.0344441161
     -0.0333307050
     -0.0320453010
     -0.0306482576
     -0.0292060524
     -0.0277615692
     -0.0263215043
     -0.0248634778
     -0.0233521461
     -0.0217549652
     -0.0200497210
     -0.0182229988
     -0.0162704196
     -0.0142034115
     -0.0120544750
     -0.0098760128
     -0.0077361818
     -0.0057139797
     -0.0038859572
     -0.0023024306
     -0.0009718193
      0.0001348249
      0.0010694070
      0.0018883352
      0.0026284582
      0.0032878860
      0.0038231264
      0.0041600936
      0.0042144596
      0.0039204857
      0.0032612830
      0.0022862025
      0.0011080827
     -0.0001134939
     -0.0011968439
     -0.0019678245
     -0.0022856963
     -0.0020536706
     -0.0012118139
      0.0002692133
      0.0023709210
      0.0050001522
      0.0079923291
      0.0111495508
      0.0142741427
      0.0171741098
      0.0196641106
      0.0215860680
      0.0228308830
      0.0233368482
      0.0230839849
      0.0221115854
      0.0205382667
      0.0185506903
      0.0163651630
      0.0141811436
      0.0121397087
      0.0103091281
      0.0087091634
      0.0073419842
      0.0061936858
      0.0052295905
      0.0044270433
      0.0038222878
      0.0035113906
      0.0036069567
      0.0041995868
      0.0053406609
      0.0070240176
      0.0091542145
      0.0115272580
      0.0138562806
      0.0158332791
      0.0171908420
      0.0177438967
      0.0174080599
      0.0161924753
      0.0141734602
      0.0114661893
      0.0082062213
      0.0045390604
      0.0006098081
     -0.0034532975
     -0.0075572901
     -0.0116505548
     -0.0157080628
     -0.0197066851
     -0.0236101169
     -0.0273646340
     -0.0308974292
     -0.0341246687
     -0.0369689912
     -0.0393689387
     -0.0412818417
     -0.0426942818
     -0.0436316356
     -0.0441552289
     -0.0443590097
     -0.0443738326
     -0.0443633646
     -0.0444972739
     -0.0449105091
     -0.0456744730
     -0.0468016453
     -0.0482759550
     -0.0500777513
     -0.0521857664
     -0.0545633361
     -0.0571439937
     -0.0598285459
     -0.0624983236
     -0.0650378168
     -0.0673536137
     -0.0693798587
     -0.0710717663
     -0.0723973885
     -0.0733354911
     -0.0738795251
     -0.0740440935
     -0.0738712326
     -0.0734321997
     -0.0728182867
     -0.0721227974
     -0.0714288875
     -0.0708080679
     -0.0703176931
     -0.0699943453
     -0.0698560178
     -0.0699154958
     -0.0701895654
     -0.0706933886
     -0.0714209974
     -0.0723185167
     -0.0732676387
     -0.0741019771
     -0.0746589750
     -0.0748383179
     -0.0746283829
     -0.0740936175
     -0.0733475536
     -0.0725258365
     -0.0717556328
     -0.0711290762
     -0.0706952363
     -0.0704666525
     -0.0704293996
     -0.0705607012
     -0.0708593130
     -0.0713730976
     -0.0721983463
     -0.0734445974
     -0.0751922056
     -0.0774738640
     -0.0802763104
     -0.0835367739
     -0.0871314108
     -0.0908687338
     -0.0944881663
     -0.0976655558
     -0.1000516564
     -0.1013549417
     -0.1014191881
     -0.1002309546
     -0.0978621766
     -0.0944096744
     -0.0899689421
     -0.0846278891
     -0.0784509555
     -0.0714486688
     -0.0635557249
     -0.0546376295
     -0.0445199795
     -0.0330243632
     -0.0200031884
     -0.0053665815
      0.0109090628
      0.0287918337
      0.0482079834
      0.0690401942
      0.0911086053
      0.1141438782
      0.1377576888
      0.1614187658
      0.1844508946
      0.2060611248
      0.2253937572
      0.2415983975
      0.2538898885
      0.2615751624
      0.2640470862
      0.2607766688
      0.2513320744
      0.2354186922
      0.2129211873
      0.1839439422
      0.1488441527
      0.1082362458
      0.0629586577
      0.0140124401
     -0.0375154763
     -0.0905252397
     -0.1439486444
     -0.1967585832
     -0.2479588538
     -0.2965760827
     -0.3416741490
     -0.3823960125
     -0.4180131853
     -0.4479653239
     -0.4718960226
     -0.4896858931
     -0.5014606714
     -0.5075545311
     -0.5084415078
     -0.5046645999
     -0.4967841506
     -0.4853515923
     -0.4709022939
     -0.4539529383
     -0.4349942207
     -0.4144878089
     -0.3928732872
     -0.3705751896
     -0.3479974866
     -0.3255034387
     -0.3033907413
     -0.2818732262
     -0.2610786557
     -0.2410681099
     -0.2218669206
     -0.2034789473
     -0.1858782619
     -0.1690150052
     -0.1528538316
     -0.1374070942
     -0.1227340549
     -0.1089230552
     -0.0960753784
     -0.0842964128
     -0.0736934617
     -0.0643719807
     -0.0564219952
     -0.0498981476
     -0.0448038131
     -0.0410832614
     -0.0386129320
     -0.0371886604
     -0.0365284793
     -0.0363101587
     -0.0362284780
     -0.0360382050
     -0.0355639271
     -0.0346825048
     -0.0333035104
     -0.0313731618
     -0.0289018936
     -0.0259850323
     -0.0227836594
     -0.0194718074
     -0.0161917284
     -0.0130435741
     -0.0100987703
     -0.0074156872
     -0.0050488287
     -0.0030501976
     -0.0014587477
     -0.0002756463
      0.0005652031
      0.0012050753
      0.0018198146
      0.0025465155
      0.0034367011
      0.0044704750
      0.0056028920
      0.0067956802
      0.0080241254
      0.0092722280
      0.0105180461
      0.0117148953
      0.0127898995
      0.0136659406
      0.0142880166
      0.0146379434
      0.0147363283
      0.0146363368
      0.0144127421
      0.0141493818
      0.0139301503
      0.0138341254
      0.0139289470
      0.0142632872
      0.0148622720
      0.0157204121
      0.0167943295
      0.0180126727
      0.0193034280
      0.0206147097
      0.0219164547
      0.0231907833
      0.0244222619
      0.0255986284
      0.0267184842
      0.0277857371
      0.0287900437
      0.0297016501
      0.0304950122
      0.0311792456
      0.0318089388
      0.0324716605
      0.0332601517
      0.0342426598
      0.0354489721
      0.0368736535
      0.0384833626
      0.0402248465
      0.0420372859
      0.0438614301
      0.0456334874
      0.0472747535
      0.0487030745
      0.0498644747
      0.0507565252
      0.0514282286
      0.0519626997
      0.0524564013
      0.0530053750
      0.0536978692
      0.0546072759
      0.0557832047
      0.0572390780
      0.0589388721
      0.0607968159
      0.0627005547
      0.0645433888
      0.0662389770
      0.0677198097
      0.0689454153
      0.0699267238
      0.0707452297
      0.0715411454
      0.0724658147
      0.0736289620
      0.0750750303
      0.0767909214
      0.0787366033
      0.0808917731
      0.0832880586
      0.0859928206
      0.0890605897
      0.0924966931
      0.0962505415
      0.1002301648
      0.1043189988
      0.1083792076
      0.1122530028
      0.1157835722
      0.1188481897
      0.1213818341
      0.1233869791
      0.1249309927
      0.1261245757
      0.1270876974
      0.1279186159
      0.1286746114
      0.1293764561
      0.1300410926
      0.1307158917
      0.1314866394
      0.1324655712
      0.1337786764
      0.1355540156
      0.1379072517
      0.1409277916
      0.1446643025
      0.1491046101
      0.1541655362
      0.1597123593
      0.1655938178
      0.1716620028
      0.1777729839
      0.1837878823
      0.1895857751
      0.1950747371
      0.2001844496
      0.2048518509
      0.2090260535
      0.2126871645
      0.2158444375
      0.2185075283
      0.2206699103
      0.2223319262
      0.2235396206
      0.2244011015
      0.2250665575
      0.2256812304
      0.2263348848
      0.2270378321
      0.2277333587
      0.2283291519
      0.2287267596
      0.2288422734
      0.2286197990
      0.2280409485
      0.2271309346
      0.2259548455
      0.2246000767
      0.2231567204
      0.2217114717
      0.2203500569
      0.2191487551
      0.2181512564
      0.2173496187
      0.2166900635
      0.2161030620
      0.2155349553
      0.2149603516
      0.2143799365
      0.2138148844
      0.2132928967
      0.2128210962
      0.2123589963
      0.2118082941
      0.2110224068
      0.2098280787
      0.2080575675
      0.2055953294
      0.2024279237
      0.1986673027
      0.1945286989
      0.1902713776
      0.1861357093
      0.1823051721
      0.1788852811
      0.1758857220
      0.1732171029
      0.1707127392
      0.1681717783
      0.1654112488
      0.1623072177
      0.1588054448
      0.1549034268
      0.1506203711
      0.1459697932
      0.1409446597
      0.1355186999
      0.1296575963
      0.1233351454
      0.1165538356
      0.1093636379
      0.1018663496
      0.0942007154
      0.0865218490
      0.0789912343
      0.0717760026
      0.0650407672
      0.0589214861
      0.0534938127
      0.0487621501
      0.0446778350
      0.0411674529
      0.0381519869
      0.0355524048
      0.0332864150
      0.0312642679
      0.0293898471
      0.0275635049
      0.0256773215
      0.0236109551
      0.0212524291
      0.0185436551
      0.0155111738
      0.0122475671
      0.0088618398
      0.0054478985
      0.0020868070
     -0.0011403320
     -0.0041476516
     -0.0068515027
     -0.0091884909
     -0.0111372303
     -0.0127306078
     -0.0140517792
     -0.0152187720
     -0.0163661204
     -0.0176264253
     -0.0191095229
     -0.0208781827
     -0.0229314230
     -0.0252131075
     -0.0276402365
     -0.0301263649
     -0.0325939506
     -0.0349848047
     -0.0372701921
     -0.0394566320
     -0.0415797532
     -0.0436777771
     -0.0457564071
     -0.0477756783
     -0.0496663563
     -0.0513535924
     -0.0527723767
     -0.0538758859
     -0.0546403266
     -0.0550656915
     -0.0551725291
     -0.0549985021
     -0.0545940399
     -0.0540114455
     -0.0532888509
     -0.0524384677
     -0.0514449961
     -0.0502711758
     -0.0488667488
     -0.0471841358
     -0.0452056751
     -0.0429730155
     -0.0405948795
     -0.0382287242
     -0.0360610411
     -0.0342934430
     -0.0331175700
     -0.0326827429
     -0.0330750644
     -0.0343029387
     -0.0362723395
     -0.0387702994
     -0.0415014550
     -0.0441728123
     -0.0465590172
     -0.0485083684
     -0.0499163829
     -0.0507119708
     -0.0508740358
     -0.0504571460
     -0.0495878682
     -0.0484205112
     -0.0470833890
     -0.0456526577
     -0.0441626757
     -0.0426404104
     -0.0411389396
     -0.0397440344
     -0.0385544337
     -0.0376574658
     -0.0371114910
     -0.0369334184
     -0.0370848179
     -0.0374592952
     -0.0378970094
     -0.0382407755
     -0.0383940823
     -0.0383302905
     -0.0380623415
     -0.0376202390
     -0.0370444544
     -0.0363713726
     -0.0356179476
     -0.0347902700
     -0.0339092053
     -0.0330282226
     -0.0322291180
     -0.0315991156
     -0.0312062372
     -0.0310851801
     -0.0312342383
     -0.0316194445
     -0.0321773589
     -0.0328144841
     -0.0334167555
     -0.0338761136
     -0.0341210999
     -0.0341325104
     -0.0339367650
     -0.0335890539
     -0.0331606120
     -0.0327276438
     -0.0323570520
     -0.0320945196
     -0.0319607034
     -0.0319542810
     -0.0320578516
     -0.0322453715
     -0.0324917249
     -0.0327782929
     -0.0330859609
     -0.0333836004
     -0.0336290896
     -0.0337828845
     -0.0338192731
     -0.0337283239
     -0.0335150249
     -0.0331993699
     -0.0328134447
     -0.0323991403
     -0.0320111550
     -0.0317164920
     -0.0315795392
     -0.0316348448
     -0.0318657719
     -0.0322062150
     -0.0325598195
     -0.0328221843
     -0.0329019725
     -0.0327371806
     -0.0322976857
     -0.0315720290
     -0.0305546764
     -0.0292564668
     -0.0277340543
     -0.0261064619
     -0.0245424155
     -0.0232341066
     -0.0223715547
     -0.0221129842
     -0.0225488823
     -0.0236722361
     -0.0253701657
     -0.0274423659
     -0.0296375323
     -0.0316880196
     -0.0333339162
     -0.0343569778
     -0.0346362740
     -0.0341854990
     -0.0331329443
     -0.0316683762
     -0.0299973786
     -0.0283054952
     -0.0267294962
     -0.0253518019
     -0.0242241919
     -0.0234011933
     -0.0229534265
     -0.0229461491
     -0.0233990848
     -0.0242639072
     -0.0254413299
     -0.0268170480
     -0.0282804947
     -0.0297227725
     -0.0310325809
     -0.0321025625
     -0.0328495093
     -0.0332398675
     -0.0333046764
     -0.0331366584
     -0.0328686871
     -0.0326346904
     -0.0325209685
     -0.0325258560
     -0.0325513557
     -0.0324406512
     -0.0320462026
     -0.0312859416
     -0.0301505066
     -0.0286656041
     -0.0268569160
     -0.0247594994
     -0.0224494152
     -0.0200406834
     -0.0176471565
     -0.0153634846
     -0.0132862022
     -0.0115354965
     -0.0102335867
     -0.0094485562
     -0.0091620646
     -0.0092974268
     -0.0097662481
     -0.0104752341
     -0.0113097066
     -0.0121433530
     -0.0128725795
     -0.0134402197
     -0.0138296820
     -0.0140359215
     -0.0140346419
     -0.0137679484
     -0.0131489374
     -0.0120783253
     -0.0104650492
     -0.0082478970
     -0.0054211258
     -0.0020582741
      0.0016842640
      0.0055914982
      0.0094283456
      0.0129775871
      0.0160690285
      0.0185955912
      0.0205226857
      0.0218928009
      0.0228139460
      0.0234313495
      0.0238917526
      0.0243090931
      0.0247503854
      0.0252477694
      0.0258082021
      0.0264041647
      0.0269670282
      0.0274005048
      0.0276076961
      0.0275220517
      0.0271284264
      0.0264555402
      0.0255442578
      0.0244270507
      0.0231424868
      0.0217640903
      0.0204087105
      0.0192203652
      0.0183490962
      0.0179357547
      0.0180962272
      0.0188974589
      0.0203345157
      0.0223273411
      0.0247381125
      0.0273915976
      0.0300917588
      0.0326406322
      0.0348574817
      0.0365933105
      0.0377428569
      0.0382552668
      0.0381404087
      0.0374686606
      0.0363629013
      0.0349822342
      0.0335014910
      0.0320926830
      0.0309104156
      0.0300785098
      0.0296727996
      0.0296956524
      0.0300538391
      0.0305655692
      0.0310020540
      0.0311444141
      0.0308336671
      0.0299988985
      0.0286633912
      0.0269317273
      0.0249549877
      0.0228864755
      0.0208529234
      0.0189450774
      0.0172127485
      0.0156608894
      0.0142561784
      0.0129472474
      0.0116906995
      0.0104705337
      0.0092988377
      0.0081957281
      0.0071622832
      0.0061602863
      0.0051028123
      0.0038631521
      0.0023071808
      0.0003355052
     -0.0020820298
     -0.0048900498
     -0.0079640802
     -0.0111637646
     -0.0143871615
     -0.0175794978
     -0.0207035374
     -0.0237203166
     -0.0265972335
     -0.0293123201
     -0.0318361185
     -0.0341229849
     -0.0361374915
     -0.0378837995
     -0.0393999927
     -0.0407301299
     -0.0419059470
     -0.0429437682
     -0.0438478477
     -0.0446200110
     -0.0452773757
     -0.0458644964
     -0.0464391001
     -0.0470364578
     -0.0476438291
     -0.0482030921
     -0.0486325808
     -0.0488540381
     -0.0488156006
     -0.0485050976
     -0.0479586087
     -0.0472711436
     -0.0465996414
     -0.0461421981
     -0.0460936390
     -0.0465919822
     -0.0476753637
     -0.0492723547
     -0.0512327775
     -0.0533718504
     -0.0555017628
     -0.0574555025
     -0.0591093190
     -0.0603982061
     -0.0613139309
     -0.0618782938
     -0.0621122159
     -0.0620306395
     -0.0616560765
     -0.0610270426
     -0.0601983853
     -0.0592399426
     -0.0582341962
     -0.0572701059
     -0.0564310029
     -0.0557823926
     -0.0553732105
     -0.0552522391
     -0.0554798245
     -0.0561208352
     -0.0572287329
     -0.0588314719
     -0.0609151013
     -0.0634087548
     -0.0661905110
     -0.0691167265
     -0.0720472559
     -0.0748492554
     -0.0773956180
     -0.0795716047
     -0.0812801272
     -0.0824339539
     -0.0829358622
     -0.0826579258
     -0.0814387351
     -0.0791102126
     -0.0755374432
     -0.0706397966
     -0.0643832833
     -0.0567572899
     -0.0477501489
     -0.0373360887
     -0.0254816990
     -0.0121613983
      0.0026378946
      0.0189247858
      0.0367073789
      0.0559806116
      0.0766950399
      0.0987144932
      0.1217822209
      0.1455088705
      0.1693736911
      0.1927312464
      0.2148328274
      0.2348696440
      0.2520244718
      0.2655104697
      0.2745940685
      0.2786154449
      0.2770141363
      0.2693535089
      0.2553415596
      0.2348544151
      0.2079593241
      0.1749254167
      0.1362190843
      0.0924878716
      0.0445459224
     -0.0066337325
     -0.0599499233
     -0.1142468303
     -0.1683835387
     -0.2212600410
     -0.2718349695
     -0.3191651106
     -0.3624375463
     -0.4009720087
     -0.4342180192
     -0.4617673159
     -0.4833749235
     -0.4989708364
     -0.5086551309
     -0.5126805305
     -0.5114262104
     -0.5053664446
     -0.4950444996
     -0.4810505211
     -0.4639924169
     -0.4444571435
     -0.4229781330
     -0.4000262618
     -0.3760205507
     -0.3513416648
     -0.3263437450
     -0.3013623059
     -0.2767071426
     -0.2526467144
     -0.2294051349
     -0.2071758062
     -0.1861404926
     -0.1664778888
     -0.1483501047
     -0.1318760961
     -0.1171112359
     -0.1040407270
     -0.0925835818
     -0.0826015994
     -0.0739098787
     -0.0662924871
     -0.0595311634
     -0.0534410588
     -0.0478844233
     -0.0427459404
     -0.0379081815
     -0.0332705714
     -0.0287852548
     -0.0244583338
     -0.0203180946
     -0.0163866449
     -0.0126747694
     -0.0091945361
     -0.0059763361
     -0.0030762404
     -0.0005602862
      0.0015240107
      0.0031594324
      0.0043498911
      0.0051090233
      0.0054542683
      0.0054040579
      0.0049769827
      0.0041949549
      0.0030949195
      0.0017470628
      0.0002667976
     -0.0011904886
     -0.0024509379
     -0.0033494153
     -0.0037501671
     -0.0035579922
     -0.0027310573
     -0.0013025997
      0.0006063035
      0.0028069462
      0.0050887978
      0.0072620334
      0.0091863740
      0.0107885497
      0.0120624490
      0.0130606936
      0.0138957882
      0.0147305308
      0.0157305095
      0.0170119833
      0.0186278503
      0.0205737837
      0.0227913707
      0.0251823906
      0.0276375897
      0.0300618429
      0.0323873907
      0.0345754176
      0.0366061963
      0.0384641513
      0.0401284955
      0.0415717848
      0.0427636430
      0.0436842218
      0.0443449654
      0.0447955355
      0.0451028347
      0.0453184098
      0.0454630964
      0.0455367714
      0.0455381908
      0.0454782061
      0.0453783795
      0.0452602059
      0.0451369248
      0.0450099967
      0.0448659882
      0.0446764193
      0.0444057211
      0.0440260954
      0.0435319319
      0.0429462530
      0.0423121750
      0.0416701287
      0.0410490818
      0.0405003801
      0.0401423946
      0.0401511230
      0.0406988338
      0.0419060625
      0.0438350514
      0.0464992225
      0.0498648249
      0.0538411774
      0.0582707822
      0.0629347935
      0.0675801635
      0.0719611347
      0.0758776069
      0.0791968852
      0.0818598196
      0.0838767961
      0.0853120536
      0.0862577036
      0.0868100822
      0.0870628655
      0.0871159211
      0.0870828778
      0.0870840624
      0.0872308239
      0.0876152068
      0.0883076489
      0.0893563777
      0.0907865688
      0.0925990567
      0.0947697088
      0.0972508565
      0.0999736488
      0.1028552502
      0.1058141664
      0.1087808087
      0.1116946116
      0.1145014986
      0.1171666384
      0.1196985394
      0.1221615672
      0.1246578842
      0.1272938102
      0.1301652342
      0.1333613694
      0.1369566321
      0.1409885734
      0.1454484314
      0.1502923369
      0.1554547548
      0.1608474404
      0.1663524657
      0.1718286723
      0.1771320999
      0.1821351200
      0.1867352575
      0.1908606142
      0.1944768429
      0.1975835562
      0.2001951635
      0.2023251057
      0.2039874941
      0.2052068263
      0.2060297728
      0.2065409422
      0.2068669945
      0.2071505189
      0.2075137049
      0.2080454975
      0.2088142633
      0.2098821998
      0.2113034874
      0.2131073624
      0.2152831256
      0.2177793086
      0.2205142677
      0.2233894020
      0.2262993753
      0.2291387171
      0.2318041623
      0.2341926396
      0.2362029701
      0.2377488911
      0.2387749553
      0.2392622977
      0.2392235845
      0.2386935353
      0.2377206385
      0.2363650054
      0.2347051948
      0.2328483015
      0.2309276462
      0.2290774435
      0.2273956090
      0.2259199768
      0.2246333361
      0.2234866917
      0.2224193215
      0.2213681340
      0.2202699035
      0.2190645784
      0.2177028805
      0.2161466330
      0.2143586427
      0.2123058736
      0.2099834681
      0.2074263543
      0.2046873271
      0.2018080354
      0.1988137364
      0.1957250088
      0.1925564706
      0.1892974228
      0.1859013289
      0.1822987944
      0.1784189492
      0.1742055118
      0.1696330607
      0.1647249609
      0.1595531255
      0.1542051435
      0.1487356126
      0.1431265473
      0.1372714043
      0.1309939474
      0.1241039559
      0.1164734066
      0.1081025973
      0.0991542935
      0.0899492577
      0.0809088945
      0.0724496692
      0.0648949146
      0.0584569871
      0.0532541387
      0.0493088812
      0.0465374738
      0.0447655022
      0.0437679775
      0.0433050692
      0.0431456044
      0.0430935286
      0.0430058129
      0.0427681170
      0.0422414243
      0.0412403420
      0.0395696945
      0.0370842405
      0.0337260999
      0.0295247417
      0.0245750733
      0.0190191567
      0.0130389519
      0.0068492903
      0.0006827881
     -0.0052346680
     -0.0107136350
     -0.0156232407
     -0.0198955331
     -0.0235153548
     -0.0265053157
     -0.0289146509
     -0.0308176819
     -0.0323180407
     -0.0335470513
     -0.0346507318
     -0.0357674472
     -0.0369991101
     -0.0383878723
     -0.0399197191
     -0.0415552109
     -0.0432553217
     -0.0449810959
     -0.0466848612
     -0.0483152084
     -0.0498318672
     -0.0512170978
     -0.0524791963
     -0.0536487848
     -0.0547658131
     -0.0558526739
     -0.0568781756
     -0.0577394366
     -0.0582882576
     -0.0583911538
     -0.0579796433
     -0.0570617244
     -0.0557068028
     -0.0540321991
     -0.0521977656
     -0.0503932312
     -0.0488108955
     -0.0476154201
     -0.0469205379
     -0.0467716269
     -0.0471377783
     -0.0479211472
     -0.0489810929
     -0.0501637720
     -0.0513297878
     -0.0523702241
     -0.0532058775
     -0.0537826419
     -0.0540752858
     -0.0540913828
     -0.0538659431
     -0.0534528866
     -0.0529175811
     -0.0523247793
     -0.0517212749
     -0.0511258468
     -0.0505380034
     -0.0499628782
     -0.0494383276
     -0.0490438342
     -0.0488827080
     -0.0490553156
     -0.0496393628
     -0.0506720841
     -0.0521264933
     -0.0538821891
     -0.0557136498
     -0.0573348030
     -0.0584894158
     -0.0590189733
     -0.0588698015
     -0.0580666922
     -0.0566916317
     -0.0548762009
     -0.0527904481
     -0.0506155491
     -0.0485141613
     -0.0466159023
     -0.0450116992
     -0.0437488556
     -0.0428383462
     -0.0422777124
     -0.0420688428
     -0.0422147773
     -0.0427000299
     -0.0434677117
     -0.0444099344
     -0.0453835949
     -0.0462457612
     -0.0468909591
     -0.0472780466
     -0.0474441238
     -0.0474982224
     -0.0475775003
     -0.0477760136
     -0.0481011569
     -0.0484863482
     -0.0488241203
     -0.0489927195
     -0.0488879606
     -0.0484572947
     -0.0477135554
     -0.0467250831
     -0.0455952734
     -0.0444372781
     -0.0433496013
     -0.0424076319
     -0.0416707993
     -0.0411835834
     -0.0409637950
     -0.0409969352
     -0.0412482955
     -0.0416843668
     -0.0422910638
     -0.0430819839
     -0.0440942533
     -0.0453739278
     -0.0469571389
     -0.0488522463
     -0.0510242768
     -0.0533823222
     -0.0557773113
     -0.0580225326
     -0.0599324740
     -0.0613535605
     -0.0621742904
     -0.0623293705
     -0.0618070886
     -0.0606500916
     -0.0589430854
     -0.0567949265
     -0.0543240532
     -0.0516490825
     -0.0488861203
     -0.0461521745
     -0.0435643345
     -0.0412279665
     -0.0392206758
     -0.0375808030
     -0.0363023840
     -0.0353346989
     -0.0345915407
     -0.0339766480
     -0.0334141813
     -0.0328650139
     -0.0323277712
     -0.0318367444
     -0.0314594135
     -0.0312812030
     -0.0313734673
     -0.0317720175
     -0.0324891806
     -0.0335389227
     -0.0349489301
     -0.0367592424
     -0.0390089452
     -0.0417129174
     -0.0448384359
     -0.0482855625
     -0.0518776774
     -0.0553794689
     -0.0585394464
     -0.0611263067
     -0.0629464239
     -0.0638623908
     -0.0638228804
     -0.0628824085
     -0.0611909851
     -0.0589632578
     -0.0564455204
     -0.0538833700
     -0.0514897257
     -0.0494202748
     -0.0477605276
     -0.0465221666
     -0.0456500649
     -0.0450463630
     -0.0446048006
     -0.0442369916
     -0.0438872278
     -0.0435404181
     -0.0432177894
     -0.0429579392
     -0.0427885316
     -0.0426978469
     -0.0426238291
     -0.0424693339
     -0.0421277620
     -0.0415014997
     -0.0405114740
     -0.0391035154
     -0.0372574478
     -0.0349991061
     -0.0324115753
     -0.0296426509
     -0.0268943477
     -0.0243807174
     -0.0222744942
     -0.0206795130
     -0.0196321644
     -0.0191078708
     -0.0190226827
     -0.0192386415
     -0.0195790976
     -0.0198536962
     -0.0198906921
     -0.0195672233
     -0.0188236814
     -0.0176585447
     -0.0161131881
     -0.0142584126
     -0.0121870684
     -0.0100093680
     -0.0078473557
     -0.0058283089
     -0.0040767561
     -0.0027008306
     -0.0017663686
     -0.0012657545
     -0.0011092164
     -0.0011558080
     -0.0012637037
     -0.0013235990
     -0.0012612693
     -0.0010255832
     -0.0005833324
      0.0000771243
      0.0009447502
      0.0019905081
      0.0031710602
      0.0044315141
      0.0057150591
      0.0069756028
      0.0081796944
      0.0092999181
      0.0103129065
      0.0112012401
      0.0119521087
      0.0125554763
      0.0130061079
      0.0133071411
      0.0134734474
      0.0135381753
      0.0135633601
      0.0136451954
      0.0138984676
      0.0144165894
      0.0152302571
      0.0162964836
      0.0175225288
      0.0187954772
      0.0199855976
      0.0209284574
      0.0214266963
      0.0212949384
      0.0204230826
      0.0188174043
      0.0165978186
      0.0139571745
      0.0111134304
      0.0082828570
      0.0056700064
      0.0034518479
      0.0017495367
      0.0006068177
     -0.0000064875
     -0.0001712762
      0.0000054338
      0.0004075865
      0.0009274522
      0.0014902981
      0.0020707285
      0.0026801936
      0.0033348014
      0.0040278574
      0.0047133220
      0.0052994741
      0.0056587742
      0.0056483396
      0.0051274775
      0.0039731096
      0.0021028647
     -0.0004966261
     -0.0037552165
     -0.0075334762
     -0.0116610294
     -0.0159800481
     -0.0203668661
     -0.0247195028
     -0.0289373156
     -0.0329231992
     -0.0366022922
     -0.0399377756
     -0.0429365858
     -0.0456410609
     -0.0481090955
     -0.0503966995
     -0.0525507294
     -0.0546091907
     -0.0566034093
     -0.0585546084
     -0.0604654402
     -0.0623148903
     -0.0640586317
     -0.0656354353
     -0.0669856966
     -0.0680706650
     -0.0688689798
     -0.0693647042
     -0.0695591494
     -0.0694907978
     -0.0692280307
     -0.0688446611
     -0.0684055537
     -0.0679627508
     -0.0675521493
     -0.0671895221
     -0.0668709502
     -0.0665804595
     -0.0662960783
     -0.0659889951
     -0.0656222031
     -0.0651577935
     -0.0645809025
     -0.0639308095
     -0.0633025765
     -0.0628065020
     -0.0625268444
     -0.0625179112
     -0.0628284663
     -0.0635244772
     -0.0646862090
     -0.0663767457
     -0.0686068386
     -0.0713232607
     -0.0744127035
     -0.0776964426
     -0.0809223428
     -0.0837872848
     -0.0859998018
     -0.0873452276
     -0.0877160430
     -0.0871168375
     -0.0856638476
     -0.0835706070
     -0.0811102390
     -0.0785636678
     -0.0761680901
     -0.0740804821
     -0.0723699629
     -0.0710365847
     -0.0700415149
     -0.0693371296
     -0.0688910186
     -0.0686987489
     -0.0687803328
     -0.0691586733
     -0.0698288381
     -0.0707307085
     -0.0717302561
     -0.0726133138
     -0.0730976015
     -0.0728591979
     -0.0715596974
     -0.0688704699
     -0.0645032749
     -0.0582405701
     -0.0499464013
     -0.0395599119
     -0.0270854551
     -0.0125813736
      0.0038533658
      0.0220930669
      0.0420007184
      0.0634359121
      0.0862372443
      0.1101844236
      0.1349660009
      0.1601611972
      0.1852313578
      0.2095283866
      0.2323242128
      0.2528463006
      0.2703065276
      0.2839273810
      0.2929708958
      0.2967681587
      0.2947481275
      0.2864756882
      0.2716954648
      0.2503573895
      0.2226143032
      0.1888049841
      0.1494390965
      0.1051888391
      0.0568772107
      0.0054508820
     -0.0480528250
     -0.1025271788
     -0.1568118930
     -0.2097284943
     -0.2601411939
     -0.3070174754
     -0.3494643569
     -0.3867496252
     -0.4183320999
     -0.4438959658
     -0.4633641839
     -0.4768804312
     -0.4847700894
     -0.4874882400
     -0.4855622649
     -0.4795495272
     -0.4700224996
     -0.4575670958
     -0.4427653253
     -0.4261581898
     -0.4082163870
     -0.3893411756
     -0.3698825836
     -0.3501382470
     -0.3303237855
     -0.3105567396
     -0.2908886969
     -0.2713609338
     -0.2520489097
     -0.2330826819
     -0.2146282047
     -0.1968383193
     -0.1798205823
     -0.1636381149
     -0.1483133733
     -0.1338254064
     -0.1201202050
     -0.1071414724
     -0.0948670879
     -0.0833364129
     -0.0726583973
     -0.0629898161
     -0.0544866361
     -0.0472484939
     -0.0412808694
     -0.0364946835
     -0.0327368788
     -0.0298224613
     -0.0275552738
     -0.0257476326
     -0.0242398735
     -0.0229106396
     -0.0216745287
     -0.0204696637
     -0.0192424264
     -0.0179421157
     -0.0165355373
     -0.0150326360
     -0.0134990672
     -0.0120452037
     -0.0108025447
     -0.0098950109
     -0.0094006741
     -0.0093160681
     -0.0095563605
     -0.0099979658
     -0.0105246035
     -0.0110412072
     -0.0114611695
     -0.0116943559
     -0.0116501804
     -0.0112495525
     -0.0104373489
     -0.0091918595
     -0.0075280899
     -0.0054969108
     -0.0031795648
     -0.0006732398
      0.0019193491
      0.0044843964
      0.0068968348
      0.0090441825
      0.0108521432
      0.0122847604
      0.0133268703
      0.0139742550
      0.0142397098
      0.0141644347
      0.0138256606
      0.0133385118
      0.0128482031
      0.0125082526
      0.0124529181
      0.0127786621
      0.0135350171
      0.0147149982
      0.0162471179
      0.0180020239
      0.0198166091
      0.0215259362
      0.0229939893
      0.0241353679
      0.0249206200
      0.0253654122
      0.0255133566
      0.0254260730
      0.0251870621
      0.0249129757
      0.0247520525
      0.0248532910
      0.0253209751
      0.0261871256
      0.0274166279
      0.0289364904
      0.0306706559
      0.0325612947
      0.0345667191
      0.0366430543
      0.0387291275
      0.0407487676
      0.0426256023
      0.0442956053
      0.0457102060
      0.0468346663
      0.0476490445
      0.0481510535
      0.0483599603
      0.0483296029
      0.0481653027
      0.0480198972
      0.0480661243
      0.0484738499
      0.0494003892
      0.0509722754
      0.0532560572
      0.0562407710
      0.0598374605
      0.0638864636
      0.0681766272
      0.0724854022
      0.0766233429
      0.0804513171
      0.0838666111
      0.0867906660
      0.0891818404
      0.0910537839
      0.0924672484
      0.0935010836
      0.0942308605
      0.0947237089
      0.0950423256
      0.0952513665
      0.0954221040
      0.0956314430
      0.0959558710
      0.0964705348
      0.0972568840
      0.0984033197
      0.0999881029
      0.1020554453
      0.1046011299
      0.1075725332
      0.1108781099
      0.1144023836
      0.1180261075
      0.1216518879
      0.1252282858
      0.1287554055
      0.1322655231
      0.1358004808
      0.1394068152
      0.1431372166
      0.1470364779
      0.1511160433
      0.1553386003
      0.1596240550
      0.1638714224
      0.1679858863
      0.1718966663
      0.1755585521
      0.1789460182
      0.1820525527
      0.1848935187
      0.1875053942
      0.1899411976
      0.1922610849
      0.1945161819
      0.1967329681
      0.1989097148
      0.2010241002
      0.2030443102
      0.2049402446
      0.2066917270
      0.2082884759
      0.2097243369
      0.2109934539
      0.2120914757
      0.2130203098
      0.2137906253
      0.2144147456
      0.2148959339
      0.2152268291
      0.2153950632
      0.2153858393
      0.2151806802
      0.2147580385
      0.2140983492
      0.2131950110
      0.2120683044
      0.2107716352
      0.2093838602
      0.2079960853
      0.2067030966
      0.2056016773
      0.2047892064
      0.2043490708
      0.2043183148
      0.2046578377
      0.2052551955
      0.2059619874
      0.2066328228
      0.2071356624
      0.2073391676
      0.2071066797
      0.2063129246
      0.2048696131
      0.2027360052
      0.1999146789
      0.1964466721
      0.1924053729
      0.1878841966
      0.1829843819
      0.1778098345
      0.1724676341
      0.1670684069
      0.1617237777
      0.1565408707
      0.1516136378
      0.1470098943
      0.1427531093
      0.1388058513
      0.1350703537
      0.1314102560
      0.1276777238
      0.1237330511
      0.1194574982
      0.1147652119
      0.1096153483
      0.1040161774
      0.0980175436
      0.0916989297
      0.0851569623
      0.0784973204
      0.0718377233
      0.0653072596
      0.0590215214
      0.0530500226
      0.0474070273
      0.0420672148
      0.0369890481
      0.0321349017
      0.0274766646
      0.0229813494
      0.0185978822
      0.0142662721
      0.0099369623
      0.0055797989
      0.0011813791
     -0.0032609815
     -0.0077402140
     -0.0122302966
     -0.0166765079
     -0.0209960118
     -0.0250822660
     -0.0288119242
     -0.0320628397
     -0.0347384028
     -0.0367899425
     -0.0382320508
     -0.0391397215
     -0.0396254286
     -0.0398148187
     -0.0398394279
     -0.0398390256
     -0.0399520285
     -0.0402912125
     -0.0409213565
     -0.0418524183
     -0.0430529080
     -0.0444793887
     -0.0461044423
     -0.0479257032
     -0.0499571115
     -0.0522085838
     -0.0546557717
     -0.0572190061
     -0.0597764067
     -0.0621977337
     -0.0643653944
     -0.0661824122
     -0.0675855130
     -0.0685561001
     -0.0691124201
     -0.0692903623
     -0.0691267326
     -0.0686412752
     -0.0678215623
     -0.0666351691
     -0.0650741383
     -0.0631972775
     -0.0611363165
     -0.0590706617
     -0.0571964197
     -0.0556982346
     -0.0547153093
     -0.0543070249
     -0.0544389151
     -0.0550011732
     -0.0558515973
     -0.0568594672
     -0.0579287261
     -0.0589997172
     -0.0600442104
     -0.0610568486
     -0.0620390512
     -0.0629859045
     -0.0638845041
     -0.0647151396
     -0.0654475391
     -0.0660317019
     -0.0663968474
     -0.0664752871
     -0.0662296191
     -0.0656474456
     -0.0647217855
     -0.0634589270
     -0.0619066171
     -0.0601671226
     -0.0583844222
     -0.0567165464
     -0.0553038940
     -0.0542430617
     -0.0535710528
     -0.0532611124
     -0.0532341078
     -0.0533844680
     -0.0536098443
     -0.0538326912
     -0.0540071502
     -0.0541128255
     -0.0541444384
     -0.0541054793
     -0.0540091284
     -0.0538827851
     -0.0537661500
     -0.0536990277
     -0.0537094437
     -0.0538133569
     -0.0540242381
     -0.0543579310
     -0.0548204035
     -0.0553857684
     -0.0559855551
     -0.0565232299
     -0.0569077320
     -0.0570813306
     -0.0570239238
     -0.0567391217
     -0.0562340915
     -0.0555039793
     -0.0545366220
     -0.0533356667
     -0.0519323051
     -0.0503720976
     -0.0486977473
     -0.0469449572
     -0.0451486781
     -0.0433523208
     -0.0416140296
     -0.0400028490
     -0.0385819972
     -0.0373906344
     -0.0364355743
     -0.0356862061
     -0.0350767635
     -0.0345414281
     -0.0340689421
     -0.0337201580
     -0.0335926563
     -0.0337731056
     -0.0343104750
     -0.0352132656
     -0.0364613906
     -0.0380197950
     -0.0398449712
     -0.0418834910
     -0.0440676324
     -0.0463193096
     -0.0485680401
     -0.0507683456
     -0.0528955422
     -0.0549217537
     -0.0567977428
     -0.0584607087
     -0.0598600097
     -0.0609792210
     -0.0618475229
     -0.0625416115
     -0.0631646737
     -0.0637947246
     -0.0644366741
     -0.0650193617
     -0.0654263347
     -0.0655241907
     -0.0651846305
     -0.0643132776
     -0.0628769621
     -0.0609088838
     -0.0584893450
     -0.0557240508
     -0.0527419224
     -0.0497080199
     -0.0468241759
     -0.0442998782
     -0.0423075520
     -0.0409513116
     -0.0402598046
     -0.0401948541
     -0.0406704247
     -0.0415753834
     -0.0427871682
     -0.0441767536
     -0.0456228182
     -0.0470402129
     -0.0483996086
     -0.0497155637
     -0.0510112233
     -0.0522869527
     -0.0535100028
     -0.0546254702
     -0.0555821843
     -0.0563611835
     -0.0569900610
     -0.0575360619
     -0.0580864698
     -0.0587297864
     -0.0595399179
     -0.0605515726
     -0.0617261641
     -0.0629365072
     -0.0639970526
     -0.0647246838
     -0.0649853572
     -0.0647002682
     -0.0638252348
     -0.0623331890
     -0.0602153465
     -0.0574977472
     -0.0542626604
     -0.0506616496
     -0.0469102785
     -0.0432689078
     -0.0400132090
     -0.0373871140
     -0.0355508216
     -0.0345610902
     -0.0343912505
     -0.0349561907
     -0.0361212380
     -0.0377088226
     -0.0395165235
     -0.0413443521
     -0.0430245325
     -0.0444449335
     -0.0455559790
     -0.0463540778
     -0.0468447246
     -0.0470064729
     -0.0467783734
     -0.0460715070
     -0.0447952673
     -0.0428925231
     -0.0403669998
     -0.0372843966
     -0.0337584540
     -0.0299453586
     -0.0260399729
     -0.0222546998
     -0.0187872928
     -0.0157977566
     -0.0133968601
     -0.0116334744
     -0.0104780709
     -0.0098165488
     -0.0094662597
     -0.0092138201
     -0.0088665830
     -0.0082984492
     -0.0074677365
     -0.0064088730
     -0.0052171168
     -0.0040317699
     -0.0030137277
     -0.0023183536
     -0.0020651370
     -0.0023102188
     -0.0030331318
     -0.0041396436
     -0.0054762047
     -0.0068566469
     -0.0080982838
     -0.0090544345
     -0.0096345907
     -0.0098124882
     -0.0096210474
     -0.0091334907
     -0.0084346328
     -0.0075917607
     -0.0066410871
     -0.0055975392
     -0.0044755549
     -0.0033017097
     -0.0021063460
     -0.0008992006
      0.0003434069
      0.0016583008
      0.0030539173
      0.0044796346
      0.0058247773
      0.0069387057
      0.0076608909
      0.0078661032
      0.0075193825
      0.0067039798
      0.0055919727
      0.0043819156
      0.0032526252
      0.0023419911
      0.0017310161
      0.0014361239
      0.0014252843
      0.0016463655
      0.0020423352
      0.0025515324
      0.0031099452
      0.0036623105
      0.0041714781
      0.0046139113
      0.0049624387
      0.0051705572
      0.0051747630
      0.0049197576
      0.0043897838
      0.0036178483
      0.0026654827
      0.0015939436
      0.0004470065
     -0.0007506260
     -0.0019865872
     -0.0032576476
     -0.0045745336
     -0.0059656324
     -0.0074715214
     -0.0091368761
     -0.0110110240
     -0.0131535567
     -0.0156285409
     -0.0184876602
     -0.0217640623
     -0.0254803710
     -0.0296428483
     -0.0342117734
     -0.0390827097
     -0.0441022553
     -0.0490964651
     -0.0538899563
     -0.0583152510
     -0.0622120611
     -0.0654255673
     -0.0678251162
     -0.0693412200
     -0.0699939132
     -0.0698958188
     -0.0692338571
     -0.0682366714
     -0.0671305656
     -0.0660953596
     -0.0652409792
     -0.0646120831
     -0.0642068684
     -0.0639955103
     -0.0639364049
     -0.0639895275
     -0.0641234070
     -0.0643195584
     -0.0645798668
     -0.0649288520
     -0.0653979853
     -0.0659980327
     -0.0667013749
     -0.0674452260
     -0.0681480393
     -0.0687282383
     -0.0691244453
     -0.0693149269
     -0.0693247020
     -0.0692153275
     -0.0690655783
     -0.0689476952
     -0.0689003617
     -0.0689117089
     -0.0689252391
     -0.0688672066
     -0.0686866716
     -0.0683860406
     -0.0680197105
     -0.0676736832
     -0.0674488023
     -0.0674437210
     -0.0677300170
     -0.0683303773
     -0.0692141503
     -0.0703097135
     -0.0715259612
     -0.0727777034
     -0.0740113780
     -0.0752231404
     -0.0764587373
     -0.0777949542
     -0.0793146193
     -0.0810834765
     -0.0831324831
     -0.0854489654
     -0.0879705325
     -0.0905762166
     -0.0930911675
     -0.0953147486
     -0.0970470458
     -0.0980912670
     -0.0982433483
     -0.0972922370
     -0.0950409919
     -0.0913380906
     -0.0860991180
     -0.0793055817
     -0.0709697977
     -0.0610756129
     -0.0495471470
     -0.0362813585
     -0.0212054905
     -0.0043076151
      0.0143598067
      0.0346840210
      0.0564946122
      0.0795576200
      0.1035641283
      0.1281275749
      0.1527882069
      0.1770080626
      0.2001603395
      0.2215347737
      0.2403685153
      0.2558923364
      0.2673747838
      0.2741498053
      0.2756268680
      0.2713054121
      0.2608070970
      0.2439135611
      0.2205983400
      0.1910536885
      0.1557068229
      0.1152122170
      0.0704151914
      0.0222967770
     -0.0280870739
     -0.0796668604
     -0.1314144582
     -0.1823761463
     -0.2316780388
     -0.2785180509
     -0.3221623898
     -0.3619493842
     -0.3972956240
     -0.4277062416
     -0.4528011680
     -0.4723520875
     -0.4863055646
     -0.4947819710
     -0.4980554283
     -0.4965194762
     -0.4906410575
     -0.4809129536
     -0.4678147435
     -0.4517911375
     -0.4332596064
     -0.4126431346
     -0.3903969526
     -0.3670032322
     -0.3429430425
     -0.3186689019
     -0.2945872247
     -0.2710472941
     -0.2483397424
     -0.2267059833
     -0.2063414305
     -0.1873825490
     -0.1698947698
     -0.1538785994
     -0.1392862797
     -0.1260345578
     -0.1140112877
     -0.1030863971
     -0.0931378826
     -0.0840857700
     -0.0759090707
     -0.0686249286
     -0.0622411408
     -0.0567230582
     -0.0519971028
     -0.0479668155
     -0.0445187539
     -0.0415317863
     -0.0389021151
     -0.0365675464
     -0.0345071331
     -0.0327099748
     -0.0311351623
     -0.0296976976
     -0.0282881260
     -0.0267987512
     -0.0251356587
     -0.0232254807
     -0.0210312940
     -0.0185724869
     -0.0159304179
     -0.0132302744
     -0.0106109157
     -0.0082003437
     -0.0060954415
     -0.0043443115
     -0.0029490574
     -0.0018881415
     -0.0011306622
     -0.0006362919
     -0.0003547145
     -0.0002236183
     -0.0001616661
     -0.0000733625
      0.0001183209
      0.0004291775
      0.0008013713
      0.0011383668
      0.0013550220
      0.0014011939
      0.0012590428
      0.0009401815
      0.0004895360
     -0.0000176217
     -0.0004901799
     -0.0008406109
     -0.0010072099
     -0.0009723897
     -0.0007543421
     -0.0003602598
      0.0002615670
      0.0012154924
      0.0026051714
      0.0044913883
      0.0068870266
      0.0097675687
      0.0130722197
      0.0166946687
      0.0204794165
      0.0242372081
      0.0277804956
      0.0309604947
      0.0336806513
      0.0358848386
      0.0375398509
      0.0386281163
      0.0391556807
      0.0391681828
      0.0387584567
      0.0380559079
      0.0372040011
      0.0363365673
      0.0355578586
      0.0349270366
      0.0344482660
      0.0340742730
      0.0337326415
      0.0333666876
      0.0329672284
      0.0325763710
      0.0322620012
      0.0320845768
      0.0320853926
      0.0322974063
      0.0327540003
      0.0334855393
      0.0345158242
      0.0358593985
      0.0375114679
      0.0394415669
      0.0416072831
      0.0439822488
      0.0465715080
      0.0493875556
      0.0524005704
      0.0555119999
      0.0585725233
      0.0614235513
      0.0639398098
      0.0660645664
      0.0678335428
      0.0693781748
      0.0708942488
      0.0725825652
      0.0745948330
      0.0770094842
      0.0798338205
      0.0830154270
      0.0864499062
      0.0899881721
      0.0934619382
      0.0967328474
      0.0997371748
      0.1024939492
      0.1050781384
      0.1075829268
      0.1100882739
      0.1126415282
      0.1152534187
      0.1179096177
      0.1205838248
      0.1232381165
      0.1258208305
      0.1282782555
      0.1305719912
      0.1326827705
      0.1346012354
      0.1363215148
      0.1378495842
      0.1392232180
      0.1405235827
      0.1418578774
      0.1433227807
      0.1449796557
      0.1468579918
      0.1489822268
      0.1513971686
      0.1541621685
      0.1573192477
      0.1608692110
      0.1647680849
      0.1689356565
      0.1732713729
      0.1776716709
      0.1820435375
      0.1863173544
      0.1904540360
      0.1944370270
      0.1982559413
      0.2018931508
      0.2053111494
      0.2084412724
      0.2111845762
      0.2134323120
      0.2151016444
      0.2161699980
      0.2166912854
      0.2167872488
      0.2166159898
      0.2163296193
      0.2160419226
      0.2158185989
      0.2156840414
      0.2156347632
      0.2156511694
      0.2157037705
      0.2157561034
      0.2157682180
      0.2156987786
      0.2155008465
      0.2151152790
      0.2144736350
      0.2135161310
      0.2122153491
      0.2105917484
      0.2087123096
      0.2066724896
      0.2045744658
      0.2025176734
      0.2006031871
      0.1989391446
      0.1976318657
      0.1967562288
      0.1963216066
      0.1962630749
      0.1964604706
      0.1967611909
      0.1969933063
      0.1969725490
      0.1965077519
      0.1954161078
      0.1935555190
      0.1908579916
      0.1873377115
      0.1830685288
      0.1781550944
      0.1727220416
      0.1669198424
      0.1609278321
      0.1549376398
      0.1491202563
      0.1435979903
      0.1384325624
      0.1336236447
      0.1291181296
      0.1248355880
      0.1206987053
      0.1166508272
      0.1126560941
      0.1086906642
      0.1047343686
      0.1007633805
      0.0967372134
      0.0925843194
      0.0882044286
      0.0834899917
      0.0783454478
      0.0726963803
      0.0665048212
      0.0597935356
      0.0526595041
      0.0452691838
      0.0378412083
      0.0306158196
      0.0238188915
      0.0176380761
      0.0122100599
      0.0076064607
      0.0038218549
      0.0007787522
     -0.0016491784
     -0.0036106284
     -0.0052548139
     -0.0067084501
     -0.0080530206
     -0.0093175825
     -0.0104950909
     -0.0115707675
     -0.0125466278
     -0.0134554608
     -0.0143628307
     -0.0153582953
     -0.0165404323
     -0.0179986376
     -0.0197928119
     -0.0219382159
     -0.0244071241
     -0.0271498077
     -0.0301199127
     -0.0332815610
     -0.0365925133
     -0.0399833731
     -0.0433519073
     -0.0465707295
     -0.0495019034
     -0.0520192049
     -0.0540318750
     -0.0554971658
     -0.0564193390
     -0.0568414330
     -0.0568361282
     -0.0564993806
     -0.0559463948
     -0.0553066544
     -0.0547078848
     -0.0542403199
     -0.0539197996
     -0.0536868572
     -0.0534502007
     -0.0531380773
     -0.0527210981
     -0.0522088893
     -0.0516376533
     -0.0510547683
     -0.0505041406
     -0.0500171557
     -0.0496119298
     -0.0492997989
     -0.0490887612
     -0.0489773937
     -0.0489551090
     -0.0490227528
     -0.0492151827
     -0.0495972931
     -0.0502343252
     -0.0511615239
     -0.0523638912
     -0.0537620373
     -0.0552201644
     -0.0565923415
     -0.0577767044
     -0.0587317310
     -0.0594520420
     -0.0599380918
     -0.0601867475
     -0.0601911992
     -0.0599231459
     -0.0593107678
     -0.0582528152
     -0.0566664673
     -0.0545268767
     -0.0518805198
     -0.0488452129
     -0.0456021652
     -0.0423740223
     -0.0393872932
     -0.0368266925
     -0.0347996056
     -0.0333279818
     -0.0323653705
     -0.0318292603
     -0.0316458605
     -0.0317887254
     -0.0322783329
     -0.0331439413
     -0.0343858413
     -0.0359617360
     -0.0377911851
     -0.0397644304
     -0.0417485386
     -0.0435920879
     -0.0451361537
     -0.0462352820
     -0.0467829257
     -0.0467338040
     -0.0461140350
     -0.0450105816
     -0.0435427427
     -0.0418322235
     -0.0399895869
     -0.0381193757
     -0.0363280810
     -0.0347208604
     -0.0333864503
     -0.0323785990
     -0.0317082815
     -0.0313567333
     -0.0312971957
     -0.0315011628
     -0.0319253393
     -0.0324987024
     -0.0331278183
     -0.0337213576
     -0.0342173278
     -0.0345925093
     -0.0348499008
     -0.0350011699
     -0.0350652337
     -0.0350804254
     -0.0351061113
     -0.0352028459
     -0.0354074985
     -0.0357194394
     -0.0360927545
     -0.0364351049
     -0.0366336331
     -0.0366041437
     -0.0363260396
     -0.0358425416
     -0.0352372900
     -0.0346038155
     -0.0340187550
     -0.0335278176
     -0.0331501961
     -0.0328949057
     -0.0327736735
     -0.0328042284
     -0.0330110416
     -0.0334300920
     -0.0341105089
     -0.0350941829
     -0.0363731086
     -0.0378595553
     -0.0393972509
     -0.0408007018
     -0.0418964028
     -0.0425530560
     -0.0426919013
     -0.0422764830
     -0.0413035937
     -0.0398146249
     -0.0379119553
     -0.0357498489
     -0.0334970057
     -0.0312971547
     -0.0292533636
     -0.0274419673
     -0.0259389244
     -0.0248347037
     -0.0242322031
     -0.0242342539
     -0.0249213185
     -0.0263189431
     -0.0283650700
     -0.0309037175
     -0.0337264203
     -0.0366337895
     -0.0394633226
     -0.0420793444
     -0.0443610139
     -0.0461980440
     -0.0474876948
     -0.0481444150
     -0.0481250472
     -0.0474470668
     -0.0461835004
     -0.0444428325
     -0.0423490629
     -0.0400302410
     -0.0376160778
     -0.0352359414
     -0.0330078974
     -0.0310212038
     -0.0293229483
     -0.0279134009
     -0.0267488845
     -0.0257573631
     -0.0248681400
     -0.0240349360
     -0.0232328773
     -0.0224392656
     -0.0216203779
     -0.0207333434
     -0.0197372660
     -0.0186048597
     -0.0173329413
     -0.0159503911
     -0.0145144751
     -0.0130980499
     -0.0117857596
     -0.0106734466
     -0.0098435264
     -0.0093258256
     -0.0090861535
     -0.0090498077
     -0.0091294125
     -0.0092426352
     -0.0093203345
     -0.0092980424
     -0.0091013331
     -0.0086538000
     -0.0079035517
     -0.0068333652
     -0.0054493109
     -0.0037738036
     -0.0018465178
      0.0002803809
      0.0025476064
      0.0048877839
      0.0072260578
      0.0094866967
      0.0115970513
      0.0134818591
      0.0150587540
      0.0162502248
      0.0170086510
      0.0173401926
      0.0173141304
      0.0170482323
      0.0166769568
      0.0163212642
      0.0160717070
      0.0159887075
      0.0161148421
      0.0164819546
      0.0171001330
      0.0179367457
      0.0189074297
      0.0198915023
      0.0207660142
      0.0214493964
      0.0219396707
      0.0223115124
      0.0226575192
      0.0230224915
      0.0233881865
      0.0237125549
      0.0239889305
      0.0242772270
      0.0246762335
      0.0252688769
      0.0261007063
      0.0271960590
      0.0285701491
      0.0302182622
      0.0320969000
      0.0341139361
      0.0361330956
      0.0379914753
      0.0395270996
      0.0406076498
      0.0411489494
      0.0411201976
      0.0405398123
      0.0394675061
      0.0379965603
      0.0362427384
      0.0343277492
      0.0323680416
      0.0304764546
      0.0287646595
      0.0273312312
      0.0262394492
      0.0255018231
      0.0250814334
      0.0249074139
      0.0248923581
      0.0249405950
      0.0249516722
      0.0248264819
      0.0244681239
      0.0237742048
      0.0226387531
      0.0209791157
      0.0187788084
      0.0161188524
      0.0131640881
      0.0100999949
      0.0070669823
      0.0041363458
      0.0013209557
     -0.0014053589
     -0.0040862253
     -0.0067549814
     -0.0094105229
     -0.0120142354
     -0.0145068504
     -0.0168279000
     -0.0189301725
     -0.0207967460
     -0.0224612840
     -0.0240136497
     -0.0255798995
     -0.0272862725
     -0.0292167179
     -0.0313775204
     -0.0336943232
     -0.0360441692
     -0.0382944755
     -0.0403295346
     -0.0420657285
     -0.0434590653
     -0.0445053168
     -0.0452335924
     -0.0456955135
     -0.0459567085
     -0.0461006463
     -0.0462393984
     -0.0465076454
     -0.0470318422
     -0.0478972159
     -0.0491357110
     -0.0507342629
     -0.0526503846
     -0.0548228621
     -0.0571718924
     -0.0595963225
     -0.0619809926
     -0.0642179474
     -0.0662310869
     -0.0679852664
     -0.0694739670
     -0.0706984028
     -0.0716502294
     -0.0723092407
     -0.0726539418
     -0.0726590008
     -0.0722757578
     -0.0714321807
     -0.0700735450
     -0.0682182610
     -0.0659860149
     -0.0635798797
     -0.0612395182
     -0.0591946431
     -0.0576359667
     -0.0566964224
     -0.0564267598
     -0.0567778125
     -0.0576197803
     -0.0587913953
     -0.0601393320
     -0.0615336187
     -0.0628777817
     -0.0641222075
     -0.0652671009
     -0.0663489327
     -0.0674222633
     -0.0685459226
     -0.0697726980
     -0.0711400285
     -0.0726590455
     -0.0742991939
     -0.0759758055
     -0.0775540173
     -0.0788681135
     -0.0797407255
     -0.0799938589
     -0.0794568285
     -0.0779729709
     -0.0754002482
     -0.0716041401
     -0.0664507970
     -0.0598090254
     -0.0515604466
     -0.0416129194
     -0.0299146939
     -0.0164650083
     -0.0013134718
      0.0154530536
      0.0337300263
      0.0534130931
      0.0743977353
      0.0965481400
      0.1196523979
      0.1433889419
      0.1673047841
      0.1908035427
      0.2131601870
      0.2335735410
      0.2512392998
      0.2654088140
      0.2754099071
      0.2806412876
      0.2805677354
      0.2747300565
      0.2627692819
      0.2444575876
      0.2197283208
      0.1887033731
      0.1517161876
      0.1093195006
      0.0622704327
      0.0114944279
     -0.0419674404
     -0.0970150903
     -0.1525332630
     -0.2074176371
     -0.2605932057
     -0.3110316396
     -0.3577645421
     -0.3998987079
     -0.4366508424
     -0.4673997760
     -0.4917328954
     -0.5094694495
     -0.5206652284
     -0.5255982280
     -0.5247294903
     -0.5186403394
     -0.5079615712
     -0.4933205843
     -0.4753250778
     -0.4545744359
     -0.4316680729
     -0.4072028100
     -0.3817719519
     -0.3559507430
     -0.3302513361
     -0.3050707877
     -0.2806730568
     -0.2572157681
     -0.2348037660
     -0.2135375440
     -0.1935314536
     -0.1748965234
     -0.1577002853
     -0.1419311762
     -0.1274955124
     -0.1142404675
     -0.1019722298
     -0.0904726237
     -0.0795364976
     -0.0690149739
     -0.0588350259
     -0.0489958897
     -0.0395579785
     -0.0306256749
     -0.0223232172
     -0.0147773996
     -0.0081117256
     -0.0024377592
      0.0021592460
      0.0056278771
      0.0079477476
      0.0091269733
      0.0092076678
      0.0082751308
      0.0064651920
      0.0039693308
      0.0010332600
     -0.0020622623
     -0.0050400086
     -0.0076604499
     -0.0097275563
     -0.0110815428
     -0.0116093084
     -0.0112664616
     -0.0100820148
     -0.0081425849
     -0.0055786138
     -0.0025628472
      0.0006931077
      0.0039603659
      0.0070322161
      0.0097665079
      0.0121108973
      0.0140953204
      0.0157920513
      0.0172648728
      0.0185374040
      0.0195960104
      0.0204183608
      0.0210051015
      0.0213947464
      0.0216568988
      0.0218734313
      0.0221193098
      0.0224512704
      0.0229071379
      0.0235106051
      0.0242752116
      0.0252080914
      0.0263152719
      0.0276019890
      0.0290585756
      0.0306389648
      0.0322593339
      0.0338303670
      0.0352948084
      0.0366330631
      0.0378417373
      0.0389190800
      0.0398653746
      0.0406794958
      0.0413510352
      0.0418646783
      0.0422139391
      0.0424028784
      0.0424330309
      0.0422992222
      0.0420021042
      0.0415548794
      0.0409787223
      0.0403085612
      0.0396076813
      0.0389680341
      0.0384974368
      0.0383061282
      0.0384876095
      0.0390958637
      0.0401387960
      0.0415912569
      0.0434115566
      0.0455528051
      0.0479684286
      0.0506079532
      0.0534045324
      0.0562705472
      0.0591126941
      0.0618525594
      0.0644318238
      0.0668031499
      0.0689281449
      0.0707913935
      0.0724118128
      0.0738346130
      0.0751121938
      0.0762870461
      0.0773788467
      0.0783788338
      0.0792589262
      0.0799929202
      0.0805798769
      0.0810630396
      0.0815385133
      0.0821495280
      0.0830640867
      0.0844391286
      0.0863878727
      0.0889643654
      0.0921579301
      0.0958870426
      0.1000017449
      0.1043109968
      0.1086278632
      0.1128046885
      0.1167416349
      0.1203778312
      0.1236813962
      0.1266426742
      0.1292696744
      0.1315894276
      0.1336579472
      0.1355690062
      0.1374416202
      0.1393863410
      0.1414806098
      0.1437729597
      0.1462995559
      0.1490886658
      0.1521503031
      0.1554560959
      0.1589195877
      0.1624063849
      0.1657800823
      0.1689469665
      0.1718717217
      0.1745638996
      0.1770493239
      0.1793494523
      0.1814850569
      0.1834928244
      0.1854244769
      0.1873247474
      0.1892213821
      0.1911374778
      0.1931017041
      0.1951483041
      0.1973165870
      0.1996536404
      0.2022166848
      0.2050651312
      0.2082344592
      0.2117044926
      0.2153835148
      0.2191185206
      0.2227276117
      0.2260409743
      0.2289319187
      0.2313277870
      0.2332034856
      0.2345643044
      0.2354293019
      0.2358276099
      0.2358064353
      0.2354319394
      0.2347739786
      0.2338894755
      0.2328215688
      0.2316083461
      0.2302863747
      0.2288880348
      0.2274374962
      0.2259416878
      0.2243781090
      0.2226945609
      0.2208311409
      0.2187580913
      0.2165067494
      0.2141707093
      0.2118797600
      0.2097708583
      0.2079691887
      0.2065735161
      0.2056419402
      0.2051789910
      0.2051289380
      0.2053820938
      0.2057905495
      0.2061836421
      0.2063861638
      0.2062432617
      0.2056395859
      0.2045025527
      0.2027966082
      0.2005166411
      0.1976782680
      0.1943012029
      0.1903914958
      0.1859350801
      0.1809131652
      0.1753335595
      0.1692534387
      0.1627735049
      0.1560094357
      0.1490702182
      0.1420608610
      0.1350909621
      0.1282637715
      0.1216516569
      0.1152826101
      0.1091477424
      0.1032163426
      0.0974453613
      0.0917861015
      0.0861930028
      0.0806283951
      0.0750609636
      0.0694725066
      0.0638766661
      0.0583233833
      0.0528747588
      0.0475749448
      0.0424387082
      0.0374610350
      0.0326354466
      0.0279654339
      0.0234655589
      0.0191596951
      0.0150807342
      0.0112743741
      0.0078081605
      0.0047734291
      0.0022662752
      0.0003536075
     -0.0009556168
     -0.0017189188
     -0.0020514762
     -0.0021141979
     -0.0021012521
     -0.0022183587
     -0.0026569853
     -0.0035798100
     -0.0051149675
     -0.0073435139
     -0.0102817360
     -0.0138741294
     -0.0180001818
     -0.0224906579
     -0.0271554273
     -0.0318118818
     -0.0362885185
     -0.0404075794
     -0.0439852402
     -0.0468627997
     -0.0489386730
     -0.0501769893
     -0.0505992845
     -0.0502748564
     -0.0493127890
     -0.0478505641
     -0.0460427888
     -0.0440579057
     -0.0420773849
     -0.0402827263
     -0.0388270989
     -0.0378076136
     -0.0372596420
     -0.0371751413
     -0.0375236012
     -0.0382571220
     -0.0393008217
     -0.0405427925
     -0.0418411046
     -0.0430535302
     -0.0440728292
     -0.0448437706
     -0.0453550182
     -0.0456192382
     -0.0456630066
     -0.0455361009
     -0.0453217775
     -0.0451222211
     -0.0450286716
     -0.0451066978
     -0.0453959554
     -0.0459051318
     -0.0466018170
     -0.0474107489
     -0.0482313968
     -0.0489694290
     -0.0495606251
     -0.0499763004
     -0.0502174012
     -0.0503043011
     -0.0502619483
     -0.0500999168
     -0.0497968905
     -0.0493077077
     -0.0485922135
     -0.0476392917
     -0.0464710966
     -0.0451406203
     -0.0437291227
     -0.0423322730
     -0.0410371833
     -0.0399059840
     -0.0389678702
     -0.0382188298
     -0.0376365222
     -0.0372022763
     -0.0369047150
     -0.0367198139
     -0.0365966521
     -0.0364715979
     -0.0362926610
     -0.0360272638
     -0.0356601514
     -0.0351960473
     -0.0346614234
     -0.0341038033
     -0.0335917696
     -0.0332007222
     -0.0329807848
     -0.0329358764
     -0.0330322087
     -0.0332200304
     -0.0334503725
     -0.0336841606
     -0.0338964872
     -0.0340782553
     -0.0342340954
     -0.0343753733
     -0.0345160216
     -0.0346807204
     -0.0349205323
     -0.0353108905
     -0.0359111503
     -0.0367137417
     -0.0376343615
     -0.0385446735
     -0.0393077619
     -0.0397983529
     -0.0399191715
     -0.0396195762
     -0.0389049612
     -0.0378265157
     -0.0364553072
     -0.0348551422
     -0.0330680013
     -0.0311142374
